      6.11542   7.46855857E+000
      6.11614   7.60333400E+000
      6.11686   7.74029566E+000
      6.11758   7.87947416E+000
      6.11830   8.02090045E+000
      6.11901   8.16460578E+000
      6.11973   8.31062180E+000
      6.12045   8.45898047E+000
      6.12117   8.60971408E+000
      6.12189   8.76285531E+000
      6.12260   8.91843717E+000
      6.12332   9.07649300E+000
      6.12404   9.23705653E+000
      6.12476   9.40016183E+000
      6.12548   9.56584333E+000
      6.12619   9.73413580E+000
      6.12691   9.90507442E+000
      6.12763   1.00786947E+001
      6.12835   1.02550325E+001
      6.12907   1.04341240E+001
      6.12979   1.06160059E+001
      6.13050   1.08007152E+001
      6.13122   1.09882893E+001
      6.13194   1.11787657E+001
      6.13266   1.13721828E+001
      6.13338   1.15685789E+001
      6.13409   1.17679929E+001
      6.13481   1.19704640E+001
      6.13553   1.21760320E+001
      6.13625   1.23847367E+001
      6.13697   1.25966186E+001
      6.13768   1.28117184E+001
      6.13840   1.30300774E+001
      6.13912   1.32517371E+001
      6.13984   1.34767394E+001
      6.14056   1.37051267E+001
      6.14127   1.39369416E+001
      6.14199   1.41722274E+001
      6.14271   1.44110276E+001
      6.14343   1.46533860E+001
      6.14415   1.48993470E+001
      6.14486   1.51489553E+001
      6.14558   1.54022560E+001
      6.14630   1.56592947E+001
      6.14702   1.59201171E+001
      6.14774   1.61847697E+001
      6.14845   1.64532992E+001
      6.14917   1.67257527E+001
      6.14989   1.70021777E+001
      6.15061   1.72826221E+001
      6.15133   1.75671343E+001
      6.15205   1.78557631E+001
      6.15276   1.81485575E+001
      6.15348   1.84455671E+001
      6.15420   1.87468419E+001
      6.15492   1.90524323E+001
      6.15564   1.93623890E+001
      6.15635   1.96767632E+001
      6.15707   1.99956065E+001
      6.15779   2.03189709E+001
      6.15851   2.06469088E+001
      6.15923   2.09794730E+001
      6.15994   2.13167168E+001
      6.16066   2.16586937E+001
      6.16138   2.20054578E+001
      6.16210   2.23570635E+001
      6.16282   2.27135657E+001
      6.16353   2.30750196E+001
      6.16425   2.34414809E+001
      6.16497   2.38130056E+001
      6.16569   2.41896502E+001
      6.16641   2.45714716E+001
      6.16712   2.49585269E+001
      6.16784   2.53508740E+001
      6.16856   2.57485708E+001
      6.16928   2.61516758E+001
      6.17000   2.65602479E+001
      6.17071   2.69743463E+001
      6.17143   2.73940306E+001
      6.17215   2.78193610E+001
      6.17287   2.82503978E+001
      6.17359   2.86872018E+001
      6.17431   2.91298343E+001
      6.17502   2.95783569E+001
      6.17574   3.00328315E+001
      6.17646   3.04933205E+001
      6.17718   3.09598866E+001
      6.17790   3.14325930E+001
      6.17861   3.19115031E+001
      6.17933   3.23966808E+001
      6.18005   3.28881903E+001
      6.18077   3.33860963E+001
      6.18149   3.38904636E+001
      6.18220   3.44013577E+001
      6.18292   3.49188443E+001
      6.18364   3.54429892E+001
      6.18436   3.59738591E+001
      6.18508   3.65115205E+001
      6.18579   3.70560407E+001
      6.18651   3.76074870E+001
      6.18723   3.81659271E+001
      6.18795   3.87314294E+001
      6.18867   3.93040620E+001
      6.18938   3.98838940E+001
      6.19010   4.04709942E+001
      6.19082   4.10654323E+001
      6.19154   4.16672778E+001
      6.19226   4.22766008E+001
      6.19297   4.28934718E+001
      6.19369   4.35179613E+001
      6.19441   4.41501403E+001
      6.19513   4.47900801E+001
      6.19585   4.54378521E+001
      6.19657   4.60935283E+001
      6.19728   4.67571807E+001
      6.19800   4.74288817E+001
      6.19872   4.81087040E+001
      6.19944   4.87967204E+001
      6.20016   4.94930041E+001
      6.20087   5.01976285E+001
      6.20159   5.09106673E+001
      6.20231   5.16321945E+001
      6.20303   5.23622840E+001
      6.20375   5.31010104E+001
      6.20446   5.38484481E+001
      6.20518   5.46046720E+001
      6.20590   5.53697570E+001
      6.20662   5.61437785E+001
      6.20734   5.69268118E+001
      6.20805   5.77189325E+001
      6.20877   5.85202163E+001
      6.20949   5.93307393E+001
      6.21021   6.01505774E+001
      6.21093   6.09798071E+001
      6.21164   6.18185048E+001
      6.21236   6.26667469E+001
      6.21308   6.35246103E+001
      6.21380   6.43921716E+001
      6.21452   6.52695080E+001
      6.21523   6.61566965E+001
      6.21595   6.70538142E+001
      6.21667   6.79609383E+001
      6.21739   6.88781464E+001
      6.21811   6.98055157E+001
      6.21883   7.07431237E+001
      6.21954   7.16910481E+001
      6.22026   7.26493665E+001
      6.22098   7.36181564E+001
      6.22170   7.45974956E+001
      6.22242   7.55874618E+001
      6.22313   7.65881327E+001
      6.22385   7.75995860E+001
      6.22457   7.86218994E+001
      6.22529   7.96551507E+001
      6.22601   8.06994175E+001
      6.22672   8.17547774E+001
      6.22744   8.28213080E+001
      6.22816   8.38990868E+001
      6.22888   8.49881914E+001
      6.22960   8.60886991E+001
      6.23031   8.72006871E+001
      6.23103   8.83242327E+001
      6.23175   8.94594129E+001
      6.23247   9.06063048E+001
      6.23319   9.17649850E+001
      6.23390   9.29355303E+001
      6.23462   9.41180172E+001
      6.23534   9.53125221E+001
      6.23606   9.65191210E+001
      6.23678   9.77378899E+001
      6.23749   9.89689047E+001
      6.23821   1.00212241E+002
      6.23893   1.01467974E+002
      6.23965   1.02736178E+002
      6.24037   1.04016929E+002
      6.24109   1.05310301E+002
      6.24180   1.06616368E+002
      6.24252   1.07935205E+002
      6.24324   1.09266884E+002
      6.24396   1.10611480E+002
      6.24468   1.11969065E+002
      6.24539   1.13339712E+002
      6.24611   1.14723493E+002
      6.24683   1.16120480E+002
      6.24755   1.17530745E+002
      6.24827   1.18954358E+002
      6.24898   1.20391391E+002
      6.24970   1.21841913E+002
      6.25042   1.23305995E+002
      6.25114   1.24783706E+002
      6.25186   1.26275115E+002
      6.25257   1.27780289E+002
      6.25329   1.29299298E+002
      6.25401   1.30832208E+002
      6.25473   1.32379086E+002
      6.25545   1.33939999E+002
      6.25616   1.35515013E+002
      6.25688   1.37104191E+002
      6.25760   1.38707600E+002
      6.25832   1.40325303E+002
      6.25904   1.41957362E+002
      6.25975   1.43603842E+002
      6.26047   1.45264804E+002
      6.26119   1.46940310E+002
      6.26191   1.48630419E+002
      6.26263   1.50335193E+002
      6.26335   1.52054690E+002
      6.26406   1.53788968E+002
      6.26478   1.55538087E+002
      6.26550   1.57302102E+002
      6.26622   1.59081070E+002
      6.26694   1.60875046E+002
      6.26765   1.62684086E+002
      6.26837   1.64508242E+002
      6.26909   1.66347568E+002
      6.26981   1.68202116E+002
      6.27053   1.70071938E+002
      6.27124   1.71957082E+002
      6.27196   1.73857600E+002
      6.27268   1.75773539E+002
      6.27340   1.77704946E+002
      6.27412   1.79651870E+002
      6.27483   1.81614354E+002
      6.27555   1.83592445E+002
      6.27627   1.85586184E+002
      6.27699   1.87595616E+002
      6.27771   1.89620781E+002
      6.27842   1.91661721E+002
      6.27914   1.93718473E+002
      6.27986   1.95791078E+002
      6.28058   1.97879572E+002
      6.28130   1.99983990E+002
      6.28201   2.02104369E+002
      6.28273   2.04240742E+002
      6.28345   2.06393141E+002
      6.28417   2.08561598E+002
      6.28489   2.10746143E+002
      6.28561   2.12946805E+002
      6.28632   2.15163613E+002
      6.28704   2.17396591E+002
      6.28776   2.19645767E+002
      6.28848   2.21911163E+002
      6.28920   2.24192802E+002
      6.28991   2.26490705E+002
      6.29063   2.28804894E+002
      6.29135   2.31135385E+002
      6.29207   2.33482196E+002
      6.29279   2.35845344E+002
      6.29350   2.38224843E+002
      6.29422   2.40620705E+002
      6.29494   2.43032942E+002
      6.29566   2.45461565E+002
      6.29638   2.47906582E+002
      6.29709   2.50368001E+002
      6.29781   2.52845826E+002
      6.29853   2.55340063E+002
      6.29925   2.57850713E+002
      6.29997   2.60377778E+002
      6.30068   2.62921258E+002
      6.30140   2.65481150E+002
      6.30212   2.68057451E+002
      6.30284   2.70650156E+002
      6.30356   2.73259257E+002
      6.30427   2.75884747E+002
      6.30499   2.78526615E+002
      6.30571   2.81184849E+002
      6.30643   2.83859436E+002
      6.30715   2.86550360E+002
      6.30786   2.89257605E+002
      6.30858   2.91981153E+002
      6.30930   2.94720982E+002
      6.31002   2.97477071E+002
      6.31074   3.00249395E+002
      6.31146   3.03037930E+002
      6.31217   3.05842647E+002
      6.31289   3.08663519E+002
      6.31361   3.11500512E+002
      6.31433   3.14353595E+002
      6.31505   3.17222733E+002
      6.31576   3.20107890E+002
      6.31648   3.23009026E+002
      6.31720   3.25926101E+002
      6.31792   3.28859074E+002
      6.31864   3.31807901E+002
      6.31935   3.34772534E+002
      6.32007   3.37752927E+002
      6.32079   3.40749029E+002
      6.32151   3.43760788E+002
      6.32223   3.46788152E+002
      6.32294   3.49831063E+002
      6.32366   3.52889464E+002
      6.32438   3.55963296E+002
      6.32510   3.59052497E+002
      6.32582   3.62157002E+002
      6.32653   3.65276747E+002
      6.32725   3.68411664E+002
      6.32797   3.71561682E+002
      6.32869   3.74726730E+002
      6.32941   3.77906734E+002
      6.33012   3.81101618E+002
      6.33084   3.84311304E+002
      6.33156   3.87535711E+002
      6.33228   3.90774759E+002
      6.33300   3.94028362E+002
      6.33372   3.97296433E+002
      6.33443   4.00578885E+002
      6.33515   4.03875627E+002
      6.33587   4.07186567E+002
      6.33659   4.10511609E+002
      6.33731   4.13850656E+002
      6.33802   4.17203609E+002
      6.33874   4.20570368E+002
      6.33946   4.23950829E+002
      6.34018   4.27344886E+002
      6.34090   4.30752431E+002
      6.34161   4.34173356E+002
      6.34233   4.37607547E+002
      6.34305   4.41054891E+002
      6.34377   4.44515272E+002
      6.34449   4.47988571E+002
      6.34520   4.51474668E+002
      6.34592   4.54973440E+002
      6.34664   4.58484761E+002
      6.34736   4.62008505E+002
      6.34808   4.65544543E+002
      6.34879   4.69092743E+002
      6.34951   4.72652972E+002
      6.35023   4.76225094E+002
      6.35095   4.79808970E+002
      6.35167   4.83404462E+002
      6.35238   4.87011426E+002
      6.35310   4.90629718E+002
      6.35382   4.94259192E+002
      6.35454   4.97899699E+002
      6.35526   5.01551087E+002
      6.35598   5.05213205E+002
      6.35669   5.08885897E+002
      6.35741   5.12569006E+002
      6.35813   5.16262371E+002
      6.35885   5.19965832E+002
      6.35957   5.23679225E+002
      6.36028   5.27402384E+002
      6.36100   5.31135141E+002
      6.36172   5.34877326E+002
      6.36244   5.38628767E+002
      6.36316   5.42389290E+002
      6.36387   5.46158718E+002
      6.36459   5.49936872E+002
      6.36531   5.53723573E+002
      6.36603   5.57518638E+002
      6.36675   5.61321883E+002
      6.36746   5.65133119E+002
      6.36818   5.68952160E+002
      6.36890   5.72778814E+002
      6.36962   5.76612888E+002
      6.37034   5.80454188E+002
      6.37105   5.84302518E+002
      6.37177   5.88157677E+002
      6.37249   5.92019466E+002
      6.37321   5.95887683E+002
      6.37393   5.99762121E+002
      6.37464   6.03642576E+002
      6.37536   6.07528838E+002
      6.37608   6.11420698E+002
      6.37680   6.15317943E+002
      6.37752   6.19220359E+002
      6.37824   6.23127730E+002
      6.37895   6.27039838E+002
      6.37967   6.30956465E+002
      6.38039   6.34877387E+002
      6.38111   6.38802383E+002
      6.38183   6.42731228E+002
      6.38254   6.46663694E+002
      6.38326   6.50599553E+002
      6.38398   6.54538575E+002
      6.38470   6.58480529E+002
      6.38542   6.62425180E+002
      6.38613   6.66372293E+002
      6.38685   6.70321633E+002
      6.38757   6.74272959E+002
      6.38829   6.78226033E+002
      6.38901   6.82180612E+002
      6.38972   6.86136453E+002
      6.39044   6.90093312E+002
      6.39116   6.94050942E+002
      6.39188   6.98009096E+002
      6.39260   7.01967524E+002
      6.39331   7.05925976E+002
      6.39403   7.09884200E+002
      6.39475   7.13841942E+002
      6.39547   7.17798948E+002
      6.39619   7.21754961E+002
      6.39690   7.25709723E+002
      6.39762   7.29662977E+002
      6.39834   7.33614461E+002
      6.39906   7.37563916E+002
      6.39978   7.41511077E+002
      6.40050   7.45455682E+002
      6.40121   7.49397466E+002
      6.40193   7.53336162E+002
      6.40265   7.57271503E+002
      6.40337   7.61203222E+002
      6.40409   7.65131049E+002
      6.40480   7.69054713E+002
      6.40552   7.72973945E+002
      6.40624   7.76888470E+002
      6.40696   7.80798017E+002
      6.40768   7.84702311E+002
      6.40839   7.88601076E+002
      6.40911   7.92494039E+002
      6.40983   7.96380921E+002
      6.41055   8.00261446E+002
      6.41127   8.04135335E+002
      6.41198   8.08002310E+002
      6.41270   8.11862090E+002
      6.41342   8.15714397E+002
      6.41414   8.19558949E+002
      6.41486   8.23395464E+002
      6.41557   8.27223661E+002
      6.41629   8.31043258E+002
      6.41701   8.34853971E+002
      6.41773   8.38655517E+002
      6.41845   8.42447613E+002
      6.41916   8.46229973E+002
      6.41988   8.50002314E+002
      6.42060   8.53764351E+002
      6.42132   8.57515798E+002
      6.42204   8.61256371E+002
      6.42276   8.64985783E+002
      6.42347   8.68703749E+002
      6.42419   8.72409983E+002
      6.42491   8.76104199E+002
      6.42563   8.79786110E+002
      6.42635   8.83455432E+002
      6.42706   8.87111876E+002
      6.42778   8.90755159E+002
      6.42850   8.94384993E+002
      6.42922   8.98001093E+002
      6.42994   9.01603173E+002
      6.43065   9.05190947E+002
      6.43137   9.08764131E+002
      6.43209   9.12322438E+002
      6.43281   9.15865585E+002
      6.43353   9.19393287E+002
      6.43424   9.22905260E+002
      6.43496   9.26401221E+002
      6.43568   9.29880885E+002
      6.43640   9.33343971E+002
      6.43712   9.36790197E+002
      6.43783   9.40219280E+002
      6.43855   9.43630939E+002
      6.43927   9.47024896E+002
      6.43999   9.50400869E+002
      6.44071   9.53758580E+002
      6.44142   9.57097750E+002
      6.44214   9.60418103E+002
      6.44286   9.63719361E+002
      6.44358   9.67001249E+002
      6.44430   9.70263492E+002
      6.44502   9.73505817E+002
      6.44573   9.76727949E+002
      6.44645   9.79929619E+002
      6.44717   9.83110554E+002
      6.44789   9.86270485E+002
      6.44861   9.89409144E+002
      6.44932   9.92526262E+002
      6.45004   9.95621575E+002
      6.45076   9.98694816E+002
      6.45148   1.00174572E+003
      6.45220   1.00477403E+003
      6.45291   1.00777948E+003
      6.45363   1.01076182E+003
      6.45435   1.01372078E+003
      6.45507   1.01665610E+003
      6.45579   1.01956754E+003
      6.45650   1.02245484E+003
      6.45722   1.02531774E+003
      6.45794   1.02815600E+003
      6.45866   1.03096937E+003
      6.45938   1.03375760E+003
      6.46009   1.03652044E+003
      6.46081   1.03925766E+003
      6.46153   1.04196900E+003
      6.46225   1.04465424E+003
      6.46297   1.04731313E+003
      6.46368   1.04994543E+003
      6.46440   1.05255091E+003
      6.46512   1.05512935E+003
      6.46584   1.05768050E+003
      6.46656   1.06020414E+003
      6.46728   1.06270005E+003
      6.46799   1.06516800E+003
      6.46871   1.06760777E+003
      6.46943   1.07001914E+003
      6.47015   1.07240189E+003
      6.47087   1.07475580E+003
      6.47158   1.07708067E+003
      6.47230   1.07937628E+003
      6.47302   1.08164243E+003
      6.47374   1.08387890E+003
      6.47446   1.08608550E+003
      6.47517   1.08826203E+003
      6.47589   1.09040828E+003
      6.47661   1.09252406E+003
      6.47733   1.09460917E+003
      6.47805   1.09666343E+003
      6.47876   1.09868664E+003
      6.47948   1.10067863E+003
      6.48020   1.10263920E+003
      6.48092   1.10456818E+003
      6.48164   1.10646539E+003
      6.48235   1.10833065E+003
      6.48307   1.11016379E+003
      6.48379   1.11196465E+003
      6.48451   1.11373305E+003
      6.48523   1.11546883E+003
      6.48594   1.11717183E+003
      6.48666   1.11884189E+003
      6.48738   1.12047885E+003
      6.48810   1.12208257E+003
      6.48882   1.12365290E+003
      6.48954   1.12518968E+003
      6.49025   1.12669278E+003
      6.49097   1.12816205E+003
      6.49169   1.12959736E+003
      6.49241   1.13099857E+003
      6.49313   1.13236555E+003
      6.49384   1.13369817E+003
      6.49456   1.13499631E+003
      6.49528   1.13625985E+003
      6.49600   1.13748866E+003
      6.49672   1.13868264E+003
      6.49743   1.13984166E+003
      6.49815   1.14096563E+003
      6.49887   1.14205443E+003
      6.49959   1.14310796E+003
      6.50031   1.14412612E+003
      6.50102   1.14510882E+003
      6.50174   1.14605597E+003
      6.50246   1.14696747E+003
      6.50318   1.14784323E+003
      6.50390   1.14868318E+003
      6.50461   1.14948724E+003
      6.50533   1.15025533E+003
      6.50605   1.15098737E+003
      6.50677   1.15168330E+003
      6.50749   1.15234306E+003
      6.50820   1.15296657E+003
      6.50892   1.15355379E+003
      6.50964   1.15410464E+003
      6.51036   1.15461910E+003
      6.51108   1.15509709E+003
      6.51179   1.15553859E+003
      6.51251   1.15594354E+003
      6.51323   1.15631191E+003
      6.51395   1.15664367E+003
      6.51467   1.15693878E+003
      6.51539   1.15719721E+003
      6.51610   1.15741895E+003
      6.51682   1.15760396E+003
      6.51754   1.15775224E+003
      6.51826   1.15786376E+003
      6.51898   1.15793853E+003
      6.51969   1.15797652E+003
      6.52041   1.15797775E+003
      6.52113   1.15794220E+003
      6.52185   1.15786989E+003
      6.52257   1.15776081E+003
      6.52328   1.15761498E+003
      6.52400   1.15743242E+003
      6.52472   1.15721315E+003
      6.52544   1.15695717E+003
      6.52616   1.15666453E+003
      6.52687   1.15633524E+003
      6.52759   1.15596934E+003
      6.52831   1.15556686E+003
      6.52903   1.15512785E+003
      6.52975   1.15465234E+003
      6.53046   1.15414038E+003
      6.53118   1.15359202E+003
      6.53190   1.15300732E+003
      6.53262   1.15238632E+003
      6.53334   1.15172909E+003
      6.53405   1.15103569E+003
      6.53477   1.15030619E+003
      6.53549   1.14954066E+003
      6.53621   1.14873917E+003
      6.53693   1.14790179E+003
      6.53765   1.14702861E+003
      6.53836   1.14611972E+003
      6.53908   1.14517519E+003
      6.53980   1.14419511E+003
      6.54052   1.14317959E+003
      6.54124   1.14212871E+003
      6.54195   1.14104258E+003
      6.54267   1.13992131E+003
      6.54339   1.13876498E+003
      6.54411   1.13757373E+003
      6.54483   1.13634765E+003
      6.54554   1.13508688E+003
      6.54626   1.13379151E+003
      6.54698   1.13246169E+003
      6.54770   1.13109753E+003
      6.54842   1.12969916E+003
      6.54913   1.12826672E+003
      6.54985   1.12680033E+003
      6.55057   1.12530015E+003
      6.55129   1.12376630E+003
      6.55201   1.12219894E+003
      6.55272   1.12059821E+003
      6.55344   1.11896426E+003
      6.55416   1.11729725E+003
      6.55488   1.11559733E+003
      6.55560   1.11386465E+003
      6.55631   1.11209939E+003
      6.55703   1.11030171E+003
      6.55775   1.10847178E+003
      6.55847   1.10660976E+003
      6.55919   1.10471583E+003
      6.55991   1.10279016E+003
      6.56062   1.10083294E+003
      6.56134   1.09884435E+003
      6.56206   1.09682457E+003
      6.56278   1.09477378E+003
      6.56350   1.09269219E+003
      6.56421   1.09057997E+003
      6.56493   1.08843733E+003
      6.56565   1.08626446E+003
      6.56637   1.08406157E+003
      6.56709   1.08182885E+003
      6.56780   1.07956651E+003
      6.56852   1.07727476E+003
      6.56924   1.07495381E+003
      6.56996   1.07260386E+003
      6.57068   1.07022515E+003
      6.57139   1.06781787E+003
      6.57211   1.06538225E+003
      6.57283   1.06291852E+003
      6.57355   1.06042689E+003
      6.57427   1.05790759E+003
      6.57498   1.05536085E+003
      6.57570   1.05278690E+003
      6.57642   1.05018598E+003
      6.57714   1.04755831E+003
      6.57786   1.04490413E+003
      6.57857   1.04222368E+003
      6.57929   1.03951720E+003
      6.58001   1.03678494E+003
      6.58073   1.03402714E+003
      6.58145   1.03124403E+003
      6.58217   1.02843588E+003
      6.58288   1.02560293E+003
      6.58360   1.02274543E+003
      6.58432   1.01986364E+003
      6.58504   1.01695780E+003
      6.58576   1.01402818E+003
      6.58647   1.01107503E+003
      6.58719   1.00809862E+003
      6.58791   1.00509920E+003
      6.58863   1.00207704E+003
      6.58935   9.99032394E+002
      6.59006   9.95965538E+002
      6.59078   9.92876734E+002
      6.59150   9.89766251E+002
      6.59222   9.86634358E+002
      6.59294   9.83481327E+002
      6.59365   9.80307428E+002
      6.59437   9.77112937E+002
      6.59509   9.73898126E+002
      6.59581   9.70663271E+002
      6.59653   9.67408650E+002
      6.59724   9.64134540E+002
      6.59796   9.60841219E+002
      6.59868   9.57528967E+002
      6.59940   9.54198066E+002
      6.60012   9.50848796E+002
      6.60083   9.47481441E+002
      6.60155   9.44096283E+002
      6.60227   9.40693607E+002
      6.60299   9.37273698E+002
      6.60371   9.33836842E+002
      6.60443   9.30383324E+002
      6.60514   9.26913433E+002
      6.60586   9.23427455E+002
      6.60658   9.19925680E+002
      6.60730   9.16408395E+002
      6.60802   9.12875891E+002
      6.60873   9.09328457E+002
      6.60945   9.05766384E+002
      6.61017   9.02189963E+002
      6.61089   8.98599484E+002
      6.61161   8.94995239E+002
      6.61232   8.91377521E+002
      6.61304   8.87746621E+002
      6.61376   8.84102831E+002
      6.61448   8.80446444E+002
      6.61520   8.76777754E+002
      6.61591   8.73097052E+002
      6.61663   8.69404632E+002
      6.61735   8.65700788E+002
      6.61807   8.61985812E+002
      6.61879   8.58259997E+002
      6.61950   8.54523636E+002
      6.62022   8.50777024E+002
      6.62094   8.47020452E+002
      6.62166   8.43254213E+002
      6.62238   8.39478602E+002
      6.62309   8.35693909E+002
      6.62381   8.31900427E+002
      6.62453   8.28098450E+002
      6.62525   8.24288267E+002
      6.62597   8.20470172E+002
      6.62669   8.16644454E+002
      6.62740   8.12811406E+002
      6.62812   8.08971318E+002
      6.62884   8.05124479E+002
      6.62956   8.01271179E+002
      6.63028   7.97411708E+002
      6.63099   7.93546353E+002
      6.63171   7.89675404E+002
      6.63243   7.85799148E+002
      6.63315   7.81917871E+002
      6.63387   7.78031860E+002
      6.63458   7.74141400E+002
      6.63530   7.70246777E+002
      6.63602   7.66348276E+002
      6.63674   7.62446178E+002
      6.63746   7.58540768E+002
      6.63817   7.54632328E+002
      6.63889   7.50721138E+002
      6.63961   7.46807480E+002
      6.64033   7.42891633E+002
      6.64105   7.38973875E+002
      6.64176   7.35054484E+002
      6.64248   7.31133739E+002
      6.64320   7.27211913E+002
      6.64392   7.23289284E+002
      6.64464   7.19366124E+002
      6.64535   7.15442707E+002
      6.64607   7.11519305E+002
      6.64679   7.07596189E+002
      6.64751   7.03673628E+002
      6.64823   6.99751893E+002
      6.64895   6.95831251E+002
      6.64966   6.91911968E+002
      6.65038   6.87994310E+002
      6.65110   6.84078541E+002
      6.65182   6.80164926E+002
      6.65254   6.76253725E+002
      6.65325   6.72345200E+002
      6.65397   6.68439611E+002
      6.65469   6.64537215E+002
      6.65541   6.60638271E+002
      6.65613   6.56743034E+002
      6.65684   6.52851759E+002
      6.65756   6.48964699E+002
      6.65828   6.45082107E+002
      6.65900   6.41204233E+002
      6.65972   6.37331327E+002
      6.66043   6.33463636E+002
      6.66115   6.29601409E+002
      6.66187   6.25744890E+002
      6.66259   6.21894323E+002
      6.66331   6.18049952E+002
      6.66402   6.14212017E+002
      6.66474   6.10380758E+002
      6.66546   6.06556415E+002
      6.66618   6.02739224E+002
      6.66690   5.98929421E+002
      6.66761   5.95127241E+002
      6.66833   5.91332916E+002
      6.66905   5.87546679E+002
      6.66977   5.83768758E+002
      6.67049   5.79999383E+002
      6.67121   5.76238782E+002
      6.67192   5.72487179E+002
      6.67264   5.68744799E+002
      6.67336   5.65011865E+002
      6.67408   5.61288599E+002
      6.67480   5.57575221E+002
      6.67551   5.53871948E+002
      6.67623   5.50178998E+002
      6.67695   5.46496588E+002
      6.67767   5.42824930E+002
      6.67839   5.39164238E+002
      6.67910   5.35514723E+002
      6.67982   5.31876595E+002
      6.68054   5.28250062E+002
      6.68126   5.24635331E+002
      6.68198   5.21032608E+002
      6.68269   5.17442098E+002
      6.68341   5.13864001E+002
      6.68413   5.10298521E+002
      6.68485   5.06745856E+002
      6.68557   5.03206205E+002
      6.68628   4.99679765E+002
      6.68700   4.96166732E+002
      6.68772   4.92667300E+002
      6.68844   4.89181662E+002
      6.68916   4.85710009E+002
      6.68987   4.82252532E+002
      6.69059   4.78809418E+002
      6.69131   4.75380857E+002
      6.69203   4.71967033E+002
      6.69275   4.68568132E+002
      6.69347   4.65184337E+002
      6.69418   4.61815830E+002
      6.69490   4.58462792E+002
      6.69562   4.55125402E+002
      6.69634   4.51803840E+002
      6.69706   4.48498282E+002
      6.69777   4.45208904E+002
      6.69849   4.41935880E+002
      6.69921   4.38679385E+002
      6.69993   4.35439590E+002
      6.70065   4.32216667E+002
      6.70136   4.29010785E+002
      6.70208   4.25822114E+002
      6.70280   4.22650820E+002
      6.70352   4.19497071E+002
      6.70424   4.16361032E+002
      6.70495   4.13242868E+002
      6.70567   4.10142742E+002
      6.70639   4.07060816E+002
      6.70711   4.03997252E+002
      6.70783   4.00952210E+002
      6.70854   3.97925850E+002
      6.70926   3.94918330E+002
      6.70998   3.91929808E+002
      6.71070   3.88960440E+002
      6.71142   3.86010382E+002
      6.71213   3.83079789E+002
      6.71285   3.80168816E+002
      6.71357   3.77277615E+002
      6.71429   3.74406340E+002
      6.71501   3.71555141E+002
      6.71572   3.68724171E+002
      6.71644   3.65913579E+002
      6.71716   3.63123514E+002
      6.71788   3.60354127E+002
      6.71860   3.57605566E+002
      6.71932   3.54877977E+002
      6.72003   3.52171510E+002
      6.72075   3.49486309E+002
      6.72147   3.46822521E+002
      6.72219   3.44180293E+002
      6.72291   3.41559768E+002
      6.72362   3.38961093E+002
      6.72434   3.36384411E+002
      6.72506   3.33829866E+002
      6.72578   3.31297602E+002
      6.72650   3.28787762E+002
      6.72721   3.26300489E+002
      6.72793   3.23835927E+002
      6.72865   3.21394217E+002
      6.72937   3.18975502E+002
      6.73009   3.16579924E+002
      6.73080   3.14207625E+002
      6.73152   3.11858748E+002
      6.73224   3.09533434E+002
      6.73296   3.07231825E+002
      6.73368   3.04954063E+002
      6.73439   3.02700290E+002
      6.73511   3.00470648E+002
      6.73583   2.98265279E+002
      6.73655   2.96084324E+002
      6.73727   2.93927928E+002
      6.73798   2.91796232E+002
      6.73870   2.89689379E+002
      6.73942   2.87607512E+002
      6.74014   2.85550774E+002
      6.74086   2.83519310E+002
      6.74158   2.81513264E+002
      6.74229   2.79532779E+002
      6.74301   2.77578002E+002
      6.74373   2.75649077E+002
      6.74445   2.73746151E+002
      6.74517   2.71869370E+002
      6.74588   2.70018882E+002
      6.74660   2.68194833E+002
      6.74732   2.66397373E+002
      6.74804   2.64626651E+002
      6.74876   2.62882817E+002
      6.74947   2.61166021E+002
      6.75019   2.59476414E+002
      6.75091   2.57814150E+002
      6.75163   2.56179382E+002
      6.75235   2.54572263E+002
      6.75306   2.52992949E+002
      6.75378   2.51441596E+002
      6.75450   2.49918362E+002
      6.75522   2.48423403E+002
      6.75594   2.46956881E+002
      6.75665   2.45518954E+002
      6.75737   2.44109786E+002
      6.75809   2.42729539E+002
      6.75881   2.41378377E+002
      6.75953   2.40056467E+002
      6.76024   2.38763973E+002
      6.76096   2.37501066E+002
      6.76168   2.36267914E+002
      6.76240   2.35064690E+002
      6.76312   2.33891564E+002
      6.76384   2.32748713E+002
      6.76455   2.31636310E+002
      6.76527   2.30554535E+002
      6.76599   2.29503565E+002
      6.76671   2.28483582E+002
      6.76743   2.27494768E+002
      6.76814   2.26537307E+002
      6.76886   2.25611386E+002
      6.76958   2.24717191E+002
      6.77030   2.23854913E+002
      6.77102   2.23024744E+002
      6.77173   2.22226877E+002
      6.77245   2.21461507E+002
      6.77317   2.20728832E+002
      6.77389   2.20029053E+002
      6.77461   2.19362370E+002
      6.77532   2.18728988E+002
      6.77604   2.18129113E+002
      6.77676   2.17562952E+002
      6.77748   2.17030718E+002
      6.77820   2.16532621E+002
      6.77891   2.16068879E+002
      6.77963   2.15639708E+002
      6.78035   2.15245328E+002
      6.78107   2.14885961E+002
      6.78179   2.14561833E+002
      6.78250   2.14273171E+002
      6.78322   2.14020204E+002
      6.78394   2.13803165E+002
      6.78466   2.13622289E+002
      6.78538   2.13477814E+002
      6.78610   2.13369980E+002
      6.78681   2.13299030E+002
      6.78753   2.13265210E+002
      6.78825   2.13268769E+002
      6.78897   2.13309957E+002
      6.78969   2.13389029E+002
      6.79040   2.13506243E+002
      6.79112   2.13661858E+002
      6.79184   2.13856137E+002
      6.79256   2.14089346E+002
      6.79328   2.14361753E+002
      6.79399   2.14673632E+002
      6.79471   2.15025256E+002
      6.79543   2.15416904E+002
      6.79615   2.15848857E+002
      6.79687   2.16321399E+002
      6.79758   2.16834818E+002
      6.79830   2.17389404E+002
      6.79902   2.17985452E+002
      6.79974   2.18623258E+002
      6.80046   2.19303123E+002
      6.80117   2.20025351E+002
      6.80189   2.20790249E+002
      6.80261   2.21598127E+002
      6.80333   2.22449299E+002
      6.80405   2.23344083E+002
      6.80476   2.24282799E+002
      6.80548   2.25265771E+002
      6.80620   2.26293327E+002
      6.80692   2.27365797E+002
      6.80764   2.28483518E+002
      6.80836   2.29646826E+002
      6.80907   2.30856064E+002
      6.80979   2.32111577E+002
      6.81051   2.33413715E+002
      6.81123   2.34762828E+002
      6.81195   2.36159274E+002
      6.81266   2.37603413E+002
      6.81338   2.39095609E+002
      6.81410   2.40636228E+002
      6.81482   2.42225641E+002
      6.81554   2.43864224E+002
      6.81625   2.45552354E+002
      6.81697   2.47290414E+002
      6.81769   2.49078790E+002
      6.81841   2.50917872E+002
      6.81913   2.52808053E+002
      6.81984   2.54749731E+002
      6.82056   2.56743306E+002
      6.82128   2.58789184E+002
      6.82200   2.60887773E+002
      6.82272   2.63039487E+002
      6.82343   2.65244742E+002
      6.82415   2.67503958E+002
      6.82487   2.69817559E+002
      6.82559   2.72185974E+002
      6.82631   2.74609634E+002
      6.82702   2.77088976E+002
      6.82774   2.79624439E+002
      6.82846   2.82216467E+002
      6.82918   2.84865507E+002
      6.82990   2.87572011E+002
      6.83062   2.90336434E+002
      6.83133   2.93159235E+002
      6.83205   2.96040877E+002
      6.83277   2.98981828E+002
      6.83349   3.01982557E+002
      6.83421   3.05043540E+002
      6.83492   3.08165255E+002
      6.83564   3.11348185E+002
      6.83636   3.14592815E+002
      6.83708   3.17899636E+002
      6.83780   3.21269142E+002
      6.83851   3.24701831E+002
      6.83923   3.28198203E+002
      6.83995   3.31758764E+002
      6.84067   3.35384024E+002
      6.84139   3.39074495E+002
      6.84210   3.42830694E+002
      6.84282   3.46653141E+002
      6.84354   3.50542360E+002
      6.84426   3.54498880E+002
      6.84498   3.58523230E+002
      6.84569   3.62615948E+002
      6.84641   3.66777571E+002
      6.84713   3.71008641E+002
      6.84785   3.75309705E+002
      6.84857   3.79681313E+002
      6.84928   3.84124017E+002
      6.85000   3.88638374E+002
      6.85072   3.93224943E+002
      6.85144   3.97884289E+002
      6.85216   4.02616979E+002
      6.85288   4.07423583E+002
      6.85359   4.12304674E+002
      6.85431   4.17260830E+002
      6.85503   4.22292631E+002
      6.85575   4.27400660E+002
      6.85647   4.32585505E+002
      6.85718   4.37847756E+002
      6.85790   4.43188005E+002
      6.85862   4.48606849E+002
      6.85934   4.54104888E+002
      6.86006   4.59682723E+002
      6.86077   4.65340960E+002
      6.86149   4.71080208E+002
      6.86221   4.76901077E+002
      6.86293   4.82804181E+002
      6.86365   4.88790138E+002
      6.86436   4.94859567E+002
      6.86508   5.01013089E+002
      6.86580   5.07251331E+002
      6.86652   5.13574918E+002
      6.86724   5.19984483E+002
      6.86795   5.26480655E+002
      6.86867   5.33064072E+002
      6.86939   5.39735369E+002
      6.87011   5.46495187E+002
      6.87083   5.53344166E+002
      6.87154   5.60282952E+002
      6.87226   5.67312189E+002
      6.87298   5.74432527E+002
      6.87370   5.81644614E+002
      6.87442   5.88949104E+002
      6.87514   5.96346649E+002
      6.87585   6.03837906E+002
      6.87657   6.11423531E+002
      6.87729   6.19104183E+002
      6.87801   6.26880524E+002
      6.87873   6.34753214E+002
      6.87944   6.42722917E+002
      6.88016   6.50790298E+002
      6.88088   6.58956022E+002
      6.88160   6.67220757E+002
      6.88232   6.75585171E+002
      6.88303   6.84049933E+002
      6.88375   6.92615712E+002
      6.88447   7.01283180E+002
      6.88519   7.10053008E+002
      6.88591   7.18925869E+002
      6.88662   7.27902435E+002
      6.88734   7.36983380E+002
      6.88806   7.46169377E+002
      6.88878   7.55461100E+002
      6.88950   7.64859224E+002
      6.89021   7.74364422E+002
      6.89093   7.83977369E+002
      6.89165   7.93698739E+002
      6.89237   8.03529206E+002
      6.89309   8.13469444E+002
      6.89380   8.23520126E+002
      6.89452   8.33681924E+002
      6.89524   8.43955511E+002
      6.89596   8.54341558E+002
      6.89668   8.64840737E+002
      6.89739   8.75453716E+002
      6.89811   8.86181164E+002
      6.89883   8.97023749E+002
      6.89955   9.07982137E+002
      6.90027   9.19056992E+002
      6.90099   9.30248979E+002
      6.90170   9.41558760E+002
      6.90242   9.52986993E+002
      6.90314   9.64534338E+002
      6.90386   9.76201451E+002
      6.90458   9.87988985E+002
      6.90529   9.99897594E+002
      6.90601   1.01192793E+003
      6.90673   1.02408063E+003
      6.90745   1.03635635E+003
      6.90817   1.04875572E+003
      6.90888   1.06127940E+003
      6.90960   1.07392801E+003
      6.91032   1.08670218E+003
      6.91104   1.09960255E+003
      6.91176   1.11262974E+003
      6.91247   1.12578438E+003
      6.91319   1.13906708E+003
      6.91391   1.15247847E+003
      6.91463   1.16601915E+003
      6.91535   1.17968973E+003
      6.91606   1.19349082E+003
      6.91678   1.20742301E+003
      6.91750   1.22148691E+003
      6.91822   1.23568309E+003
      6.91894   1.25001215E+003
      6.91965   1.26447467E+003
      6.92037   1.27907123E+003
      6.92109   1.29380239E+003
      6.92181   1.30866872E+003
      6.92253   1.32367078E+003
      6.92325   1.33880913E+003
      6.92396   1.35408431E+003
      6.92468   1.36949688E+003
      6.92540   1.38504736E+003
      6.92612   1.40073628E+003
      6.92684   1.41656418E+003
      6.92755   1.43253157E+003
      6.92827   1.44863897E+003
      6.92899   1.46488687E+003
      6.92971   1.48127577E+003
      6.93043   1.49780618E+003
      6.93114   1.51447856E+003
      6.93186   1.53129341E+003
      6.93258   1.54825118E+003
      6.93330   1.56535234E+003
      6.93402   1.58259734E+003
      6.93473   1.59998663E+003
      6.93545   1.61752065E+003
      6.93617   1.63519982E+003
      6.93689   1.65302457E+003
      6.93761   1.67099532E+003
      6.93832   1.68911245E+003
      6.93904   1.70737637E+003
      6.93976   1.72578747E+003
      6.94048   1.74434611E+003
      6.94120   1.76305268E+003
      6.94191   1.78190752E+003
      6.94263   1.80091098E+003
      6.94335   1.82006341E+003
      6.94407   1.83936513E+003
      6.94479   1.85881645E+003
      6.94551   1.87841770E+003
      6.94622   1.89816915E+003
      6.94694   1.91807111E+003
      6.94766   1.93812385E+003
      6.94838   1.95832763E+003
      6.94910   1.97868270E+003
      6.94981   1.99918932E+003
      6.95053   2.01984770E+003
      6.95125   2.04065808E+003
      6.95197   2.06162065E+003
      6.95269   2.08273562E+003
      6.95340   2.10400317E+003
      6.95412   2.12542347E+003
      6.95484   2.14699669E+003
      6.95556   2.16872296E+003
      6.95628   2.19060243E+003
      6.95699   2.21263522E+003
      6.95771   2.23482143E+003
      6.95843   2.25716116E+003
      6.95915   2.27965449E+003
      6.95987   2.30230150E+003
      6.96058   2.32510224E+003
      6.96130   2.34805675E+003
      6.96202   2.37116506E+003
      6.96274   2.39442718E+003
      6.96346   2.41784312E+003
      6.96417   2.44141286E+003
      6.96489   2.46513637E+003
      6.96561   2.48901361E+003
      6.96633   2.51304453E+003
      6.96705   2.53722904E+003
      6.96777   2.56156706E+003
      6.96848   2.58605850E+003
      6.96920   2.61070322E+003
      6.96992   2.63550111E+003
      6.97064   2.66045200E+003
      6.97136   2.68555574E+003
      6.97207   2.71081214E+003
      6.97279   2.73622101E+003
      6.97351   2.76178214E+003
      6.97423   2.78749529E+003
      6.97495   2.81336023E+003
      6.97566   2.83937669E+003
      6.97638   2.86554440E+003
      6.97710   2.89186306E+003
      6.97782   2.91833235E+003
      6.97854   2.94495196E+003
      6.97925   2.97172153E+003
      6.97997   2.99864070E+003
      6.98069   3.02570910E+003
      6.98141   3.05292633E+003
      6.98213   3.08029196E+003
      6.98284   3.10780558E+003
      6.98356   3.13546673E+003
      6.98428   3.16327494E+003
      6.98500   3.19122972E+003
      6.98572   3.21933058E+003
      6.98643   3.24757699E+003
      6.98715   3.27596841E+003
      6.98787   3.30450429E+003
      6.98859   3.33318404E+003
      6.98931   3.36200707E+003
      6.99003   3.39097276E+003
      6.99074   3.42008050E+003
      6.99146   3.44932961E+003
      6.99218   3.47871944E+003
      6.99290   3.50824929E+003
      6.99362   3.53791845E+003
      6.99433   3.56772621E+003
      6.99505   3.59767180E+003
      6.99577   3.62775447E+003
      6.99649   3.65797343E+003
      6.99721   3.68832788E+003
      6.99792   3.71881699E+003
      6.99864   3.74943992E+003
      6.99936   3.78019581E+003
      7.00008   3.81108377E+003
      7.00080   3.84210290E+003
      7.00151   3.87325229E+003
      7.00223   3.90453098E+003
      7.00295   3.93593803E+003
      7.00367   3.96747243E+003
      7.00439   3.99913321E+003
      7.00510   4.03091933E+003
      7.00582   4.06282975E+003
      7.00654   4.09486342E+003
      7.00726   4.12701925E+003
      7.00798   4.15929614E+003
      7.00869   4.19169298E+003
      7.00941   4.22420861E+003
      7.01013   4.25684188E+003
      7.01085   4.28959162E+003
      7.01157   4.32245661E+003
      7.01229   4.35543563E+003
      7.01300   4.38852746E+003
      7.01372   4.42173081E+003
      7.01444   4.45504442E+003
      7.01516   4.48846698E+003
      7.01588   4.52199717E+003
      7.01659   4.55563365E+003
      7.01731   4.58937505E+003
      7.01803   4.62322000E+003
      7.01875   4.65716709E+003
      7.01947   4.69121491E+003
      7.02018   4.72536201E+003
      7.02090   4.75960692E+003
      7.02162   4.79394818E+003
      7.02234   4.82838427E+003
      7.02306   4.86291368E+003
      7.02377   4.89753487E+003
      7.02449   4.93224627E+003
      7.02521   4.96704631E+003
      7.02593   5.00193339E+003
      7.02665   5.03690589E+003
      7.02736   5.07196217E+003
      7.02808   5.10710057E+003
      7.02880   5.14231943E+003
      7.02952   5.17761703E+003
      7.03024   5.21299168E+003
      7.03095   5.24844162E+003
      7.03167   5.28396512E+003
      7.03239   5.31956040E+003
      7.03311   5.35522567E+003
      7.03383   5.39095912E+003
      7.03455   5.42675892E+003
      7.03526   5.46262324E+003
      7.03598   5.49855019E+003
      7.03670   5.53453791E+003
      7.03742   5.57058449E+003
      7.03814   5.60668801E+003
      7.03885   5.64284654E+003
      7.03957   5.67905812E+003
      7.04029   5.71532078E+003
      7.04101   5.75163254E+003
      7.04173   5.78799139E+003
      7.04244   5.82439530E+003
      7.04316   5.86084223E+003
      7.04388   5.89733013E+003
      7.04460   5.93385693E+003
      7.04532   5.97042053E+003
      7.04603   6.00701883E+003
      7.04675   6.04364970E+003
      7.04747   6.08031101E+003
      7.04819   6.11700060E+003
      7.04891   6.15371630E+003
      7.04962   6.19045592E+003
      7.05034   6.22721728E+003
      7.05106   6.26399814E+003
      7.05178   6.30079628E+003
      7.05250   6.33760945E+003
      7.05321   6.37443539E+003
      7.05393   6.41127183E+003
      7.05465   6.44811648E+003
      7.05537   6.48496704E+003
      7.05609   6.52182119E+003
      7.05681   6.55867660E+003
      7.05752   6.59553092E+003
      7.05824   6.63238181E+003
      7.05896   6.66922689E+003
      7.05968   6.70606378E+003
      7.06040   6.74289009E+003
      7.06111   6.77970341E+003
      7.06183   6.81650133E+003
      7.06255   6.85328141E+003
      7.06327   6.89004121E+003
      7.06399   6.92677829E+003
      7.06470   6.96349017E+003
      7.06542   7.00017440E+003
      7.06614   7.03682847E+003
      7.06686   7.07344991E+003
      7.06758   7.11003619E+003
      7.06829   7.14658482E+003
      7.06901   7.18309327E+003
      7.06973   7.21955901E+003
      7.07045   7.25597949E+003
      7.07117   7.29235218E+003
      7.07188   7.32867450E+003
      7.07260   7.36494390E+003
      7.07332   7.40115780E+003
      7.07404   7.43731363E+003
      7.07476   7.47340879E+003
      7.07547   7.50944070E+003
      7.07619   7.54540675E+003
      7.07691   7.58130434E+003
      7.07763   7.61713085E+003
      7.07835   7.65288367E+003
      7.07907   7.68856018E+003
      7.07978   7.72415774E+003
      7.08050   7.75967372E+003
      7.08122   7.79510549E+003
      7.08194   7.83045041E+003
      7.08266   7.86570583E+003
      7.08337   7.90086910E+003
      7.08409   7.93593758E+003
      7.08481   7.97090861E+003
      7.08553   8.00577953E+003
      7.08625   8.04054769E+003
      7.08696   8.07521042E+003
      7.08768   8.10976507E+003
      7.08840   8.14420897E+003
      7.08912   8.17853947E+003
      7.08984   8.21275389E+003
      7.09055   8.24684958E+003
      7.09127   8.28082386E+003
      7.09199   8.31467409E+003
      7.09271   8.34839760E+003
      7.09343   8.38199172E+003
      7.09414   8.41545380E+003
      7.09486   8.44878119E+003
      7.09558   8.48197123E+003
      7.09630   8.51502126E+003
      7.09702   8.54792865E+003
      7.09773   8.58069074E+003
      7.09845   8.61330489E+003
      7.09917   8.64576847E+003
      7.09989   8.67807885E+003
      7.10061   8.71023339E+003
      7.10132   8.74222948E+003
      7.10204   8.77406450E+003
      7.10276   8.80573583E+003
      7.10348   8.83724088E+003
      7.10420   8.86857704E+003
      7.10492   8.89974172E+003
      7.10563   8.93073234E+003
      7.10635   8.96154633E+003
      7.10707   8.99218110E+003
      7.10779   9.02263411E+003
      7.10851   9.05290280E+003
      7.10922   9.08298464E+003
      7.10994   9.11287707E+003
      7.11066   9.14257760E+003
      7.11138   9.17208369E+003
      7.11210   9.20139285E+003
      7.11281   9.23050259E+003
      7.11353   9.25941042E+003
      7.11425   9.28811388E+003
      7.11497   9.31661052E+003
      7.11569   9.34489787E+003
      7.11640   9.37297352E+003
      7.11712   9.40083505E+003
      7.11784   9.42848004E+003
      7.11856   9.45590611E+003
      7.11928   9.48311088E+003
      7.11999   9.51009198E+003
      7.12071   9.53684707E+003
      7.12143   9.56337380E+003
      7.12215   9.58966987E+003
      7.12287   9.61573296E+003
      7.12358   9.64156080E+003
      7.12430   9.66715110E+003
      7.12502   9.69250162E+003
      7.12574   9.71761012E+003
      7.12646   9.74247438E+003
      7.12718   9.76709219E+003
      7.12789   9.79146138E+003
      7.12861   9.81557977E+003
      7.12933   9.83944522E+003
      7.13005   9.86305561E+003
      7.13077   9.88640882E+003
      7.13148   9.90950276E+003
      7.13220   9.93233536E+003
      7.13292   9.95490459E+003
      7.13364   9.97720840E+003
      7.13436   9.99924479E+003
      7.13507   1.00210118E+004
      7.13579   1.00425074E+004
      7.13651   1.00637297E+004
      7.13723   1.00846768E+004
      7.13795   1.01053467E+004
      7.13866   1.01257376E+004
      7.13938   1.01458477E+004
      7.14010   1.01656750E+004
      7.14082   1.01852179E+004
      7.14154   1.02044745E+004
      7.14225   1.02234430E+004
      7.14297   1.02421218E+004
      7.14369   1.02605091E+004
      7.14441   1.02786032E+004
      7.14513   1.02964025E+004
      7.14584   1.03139053E+004
      7.14656   1.03311101E+004
      7.14728   1.03480152E+004
      7.14800   1.03646191E+004
      7.14872   1.03809203E+004
      7.14944   1.03969172E+004
      7.15015   1.04126084E+004
      7.15087   1.04279924E+004
      7.15159   1.04430679E+004
      7.15231   1.04578333E+004
      7.15303   1.04722874E+004
      7.15374   1.04864288E+004
      7.15446   1.05002562E+004
      7.15518   1.05137683E+004
      7.15590   1.05269639E+004
      7.15662   1.05398417E+004
      7.15733   1.05524006E+004
      7.15805   1.05646393E+004
      7.15877   1.05765568E+004
      7.15949   1.05881519E+004
      7.16021   1.05994235E+004
      7.16092   1.06103707E+004
      7.16164   1.06209923E+004
      7.16236   1.06312874E+004
      7.16308   1.06412551E+004
      7.16380   1.06508944E+004
      7.16451   1.06602044E+004
      7.16523   1.06691842E+004
      7.16595   1.06778331E+004
      7.16667   1.06861502E+004
      7.16739   1.06941347E+004
      7.16810   1.07017859E+004
      7.16882   1.07091031E+004
      7.16954   1.07160856E+004
      7.17026   1.07227328E+004
      7.17098   1.07290440E+004
      7.17170   1.07350188E+004
      7.17241   1.07406564E+004
      7.17313   1.07459564E+004
      7.17385   1.07509184E+004
      7.17457   1.07555418E+004
      7.17529   1.07598263E+004
      7.17600   1.07637714E+004
      7.17672   1.07673769E+004
      7.17744   1.07706423E+004
      7.17816   1.07735674E+004
      7.17888   1.07761519E+004
      7.17959   1.07783957E+004
      7.18031   1.07802984E+004
      7.18103   1.07818600E+004
      7.18175   1.07830803E+004
      7.18247   1.07839593E+004
      7.18318   1.07844969E+004
      7.18390   1.07846929E+004
      7.18462   1.07845476E+004
      7.18534   1.07840608E+004
      7.18606   1.07832327E+004
      7.18677   1.07820633E+004
      7.18749   1.07805529E+004
      7.18821   1.07787015E+004
      7.18893   1.07765094E+004
      7.18965   1.07739768E+004
      7.19036   1.07711040E+004
      7.19108   1.07678913E+004
      7.19180   1.07643389E+004
      7.19252   1.07604474E+004
      7.19324   1.07562170E+004
      7.19396   1.07516483E+004
      7.19467   1.07467416E+004
      7.19539   1.07414975E+004
      7.19611   1.07359165E+004
      7.19683   1.07299992E+004
      7.19755   1.07237461E+004
      7.19826   1.07171579E+004
      7.19898   1.07102353E+004
      7.19970   1.07029789E+004
      7.20042   1.06953894E+004
      7.20114   1.06874677E+004
      7.20185   1.06792144E+004
      7.20257   1.06706305E+004
      7.20329   1.06617168E+004
      7.20401   1.06524741E+004
      7.20473   1.06429033E+004
      7.20544   1.06330054E+004
      7.20616   1.06227815E+004
      7.20688   1.06122324E+004
      7.20760   1.06013592E+004
      7.20832   1.05901629E+004
      7.20903   1.05786448E+004
      7.20975   1.05668059E+004
      7.21047   1.05546473E+004
      7.21119   1.05421702E+004
      7.21191   1.05293759E+004
      7.21262   1.05162656E+004
      7.21334   1.05028406E+004
      7.21406   1.04891022E+004
      7.21478   1.04750517E+004
      7.21550   1.04606904E+004
      7.21622   1.04460198E+004
      7.21693   1.04310413E+004
      7.21765   1.04157563E+004
      7.21837   1.04001663E+004
      7.21909   1.03842729E+004
      7.21981   1.03680774E+004
      7.22052   1.03515815E+004
      7.22124   1.03347868E+004
      7.22196   1.03176949E+004
      7.22268   1.03003074E+004
      7.22340   1.02826260E+004
      7.22411   1.02646523E+004
      7.22483   1.02463882E+004
      7.22555   1.02278352E+004
      7.22627   1.02089952E+004
      7.22699   1.01898701E+004
      7.22770   1.01704615E+004
      7.22842   1.01507713E+004
      7.22914   1.01308014E+004
      7.22986   1.01105538E+004
      7.23058   1.00900302E+004
      7.23129   1.00692327E+004
      7.23201   1.00481631E+004
      7.23273   1.00268235E+004
      7.23345   1.00052159E+004
      7.23417   9.98334235E+003
      7.23488   9.96120481E+003
      7.23560   9.93880539E+003
      7.23632   9.91614618E+003
      7.23704   9.89322930E+003
      7.23776   9.87005688E+003
      7.23848   9.84663107E+003
      7.23919   9.82295405E+003
      7.23991   9.79902801E+003
      7.24063   9.77485516E+003
      7.24135   9.75043775E+003
      7.24207   9.72577801E+003
      7.24278   9.70087822E+003
      7.24350   9.67574067E+003
      7.24422   9.65036767E+003
      7.24494   9.62476153E+003
      7.24566   9.59892461E+003
      7.24637   9.57285926E+003
      7.24709   9.54656785E+003
      7.24781   9.52005279E+003
      7.24853   9.49331647E+003
      7.24925   9.46636132E+003
      7.24996   9.43918977E+003
      7.25068   9.41180430E+003
      7.25140   9.38420735E+003
      7.25212   9.35640142E+003
      7.25284   9.32838900E+003
      7.25355   9.30017261E+003
      7.25427   9.27175476E+003
      7.25499   9.24313800E+003
      7.25571   9.21432487E+003
      7.25643   9.18531794E+003
      7.25714   9.15611979E+003
      7.25786   9.12673299E+003
      7.25858   9.09716014E+003
      7.25930   9.06740386E+003
      7.26002   9.03746675E+003
      7.26074   9.00735146E+003
      7.26145   8.97706062E+003
      7.26217   8.94659687E+003
      7.26289   8.91596288E+003
      7.26361   8.88516131E+003
      7.26433   8.85419484E+003
      7.26504   8.82306615E+003
      7.26576   8.79177792E+003
      7.26648   8.76033287E+003
      7.26720   8.72873369E+003
      7.26792   8.69698309E+003
      7.26863   8.66508380E+003
      7.26935   8.63303854E+003
      7.27007   8.60085004E+003
      7.27079   8.56852103E+003
      7.27151   8.53605426E+003
      7.27222   8.50345247E+003
      7.27294   8.47071841E+003
      7.27366   8.43785484E+003
      7.27438   8.40486451E+003
      7.27510   8.37175019E+003
      7.27581   8.33851463E+003
      7.27653   8.30516061E+003
      7.27725   8.27169089E+003
      7.27797   8.23810824E+003
      7.27869   8.20441544E+003
      7.27940   8.17061526E+003
      7.28012   8.13671047E+003
      7.28084   8.10270385E+003
      7.28156   8.06859817E+003
      7.28228   8.03439622E+003
      7.28300   8.00010076E+003
      7.28371   7.96571457E+003
      7.28443   7.93124042E+003
      7.28515   7.89668109E+003
      7.28587   7.86203934E+003
      7.28659   7.82731795E+003
      7.28730   7.79251967E+003
      7.28802   7.75764728E+003
      7.28874   7.72270354E+003
      7.28946   7.68769119E+003
      7.29018   7.65261300E+003
      7.29089   7.61747171E+003
      7.29161   7.58227008E+003
      7.29233   7.54701084E+003
      7.29305   7.51169672E+003
      7.29377   7.47633047E+003
      7.29448   7.44091480E+003
      7.29520   7.40545244E+003
      7.29592   7.36994610E+003
      7.29664   7.33439850E+003
      7.29736   7.29881232E+003
      7.29807   7.26319027E+003
      7.29879   7.22753503E+003
      7.29951   7.19184929E+003
      7.30023   7.15613572E+003
      7.30095   7.12039698E+003
      7.30166   7.08463573E+003
      7.30238   7.04885462E+003
      7.30310   7.01305629E+003
      7.30382   6.97724336E+003
      7.30454   6.94141847E+003
      7.30525   6.90558421E+003
      7.30597   6.86974320E+003
      7.30669   6.83389803E+003
      7.30741   6.79805127E+003
      7.30813   6.76220551E+003
      7.30885   6.72636329E+003
      7.30956   6.69052718E+003
      7.31028   6.65469970E+003
      7.31100   6.61888338E+003
      7.31172   6.58308075E+003
      7.31244   6.54729430E+003
      7.31315   6.51152653E+003
      7.31387   6.47577990E+003
      7.31459   6.44005690E+003
      7.31531   6.40435997E+003
      7.31603   6.36869156E+003
      7.31674   6.33305409E+003
      7.31746   6.29744997E+003
      7.31818   6.26188161E+003
      7.31890   6.22635138E+003
      7.31962   6.19086168E+003
      7.32033   6.15541484E+003
      7.32105   6.12001322E+003
      7.32177   6.08465915E+003
      7.32249   6.04935493E+003
      7.32321   6.01410288E+003
      7.32392   5.97890527E+003
      7.32464   5.94376437E+003
      7.32536   5.90868243E+003
      7.32608   5.87366171E+003
      7.32680   5.83870440E+003
      7.32751   5.80381273E+003
      7.32823   5.76898889E+003
      7.32895   5.73423504E+003
      7.32967   5.69955334E+003
      7.33039   5.66494594E+003
      7.33111   5.63041496E+003
      7.33182   5.59596250E+003
      7.33254   5.56159067E+003
      7.33326   5.52730152E+003
      7.33398   5.49309712E+003
      7.33470   5.45897951E+003
      7.33541   5.42495071E+003
      7.33613   5.39101271E+003
      7.33685   5.35716751E+003
      7.33757   5.32341708E+003
      7.33829   5.28976337E+003
      7.33900   5.25620830E+003
      7.33972   5.22275379E+003
      7.34044   5.18940175E+003
      7.34116   5.15615404E+003
      7.34188   5.12301252E+003
      7.34259   5.08997904E+003
      7.34331   5.05705542E+003
      7.34403   5.02424346E+003
      7.34475   4.99154495E+003
      7.34547   4.95896165E+003
      7.34618   4.92649531E+003
      7.34690   4.89414765E+003
      7.34762   4.86192040E+003
      7.34834   4.82981523E+003
      7.34906   4.79783381E+003
      7.34977   4.76597781E+003
      7.35049   4.73424885E+003
      7.35121   4.70264854E+003
      7.35193   4.67117848E+003
      7.35265   4.63984024E+003
      7.35337   4.60863538E+003
      7.35408   4.57756543E+003
      7.35480   4.54663191E+003
      7.35552   4.51583631E+003
      7.35624   4.48518012E+003
      7.35696   4.45466478E+003
      7.35767   4.42429174E+003
      7.35839   4.39406241E+003
      7.35911   4.36397819E+003
      7.35983   4.33404047E+003
      7.36055   4.30425059E+003
      7.36126   4.27460990E+003
      7.36198   4.24511972E+003
      7.36270   4.21578135E+003
      7.36342   4.18659606E+003
      7.36414   4.15756512E+003
      7.36485   4.12868977E+003
      7.36557   4.09997123E+003
      7.36629   4.07141069E+003
      7.36701   4.04300935E+003
      7.36773   4.01476836E+003
      7.36844   3.98668886E+003
      7.36916   3.95877198E+003
      7.36988   3.93101883E+003
      7.37060   3.90343047E+003
      7.37132   3.87600798E+003
      7.37203   3.84875240E+003
      7.37275   3.82166476E+003
      7.37347   3.79474606E+003
      7.37419   3.76799728E+003
      7.37491   3.74141940E+003
      7.37563   3.71501335E+003
      7.37634   3.68878008E+003
      7.37706   3.66272047E+003
      7.37778   3.63683544E+003
      7.37850   3.61112583E+003
      7.37922   3.58559251E+003
      7.37993   3.56023631E+003
      7.38065   3.53505804E+003
      7.38137   3.51005849E+003
      7.38209   3.48523843E+003
      7.38281   3.46059863E+003
      7.38352   3.43613982E+003
      7.38424   3.41186271E+003
      7.38496   3.38776802E+003
      7.38568   3.36385641E+003
      7.38640   3.34012855E+003
      7.38711   3.31658509E+003
      7.38783   3.29322664E+003
      7.38855   3.27005383E+003
      7.38927   3.24706723E+003
      7.38999   3.22426742E+003
      7.39070   3.20165494E+003
      7.39142   3.17923034E+003
      7.39214   3.15699413E+003
      7.39286   3.13494681E+003
      7.39358   3.11308885E+003
      7.39429   3.09142073E+003
      7.39501   3.06994289E+003
      7.39573   3.04865575E+003
      7.39645   3.02755973E+003
      7.39717   3.00665522E+003
      7.39789   2.98594259E+003
      7.39860   2.96542220E+003
      7.39932   2.94509440E+003
      7.40004   2.92495951E+003
      7.40076   2.90501784E+003
      7.40148   2.88526967E+003
      7.40219   2.86571528E+003
      7.40291   2.84635493E+003
      7.40363   2.82718886E+003
      7.40435   2.80821729E+003
      7.40507   2.78944044E+003
      7.40578   2.77085848E+003
      7.40650   2.75247160E+003
      7.40722   2.73427996E+003
      7.40794   2.71628370E+003
      7.40866   2.69848294E+003
      7.40937   2.68087780E+003
      7.41009   2.66346838E+003
      7.41081   2.64625476E+003
      7.41153   2.62923699E+003
      7.41225   2.61241513E+003
      7.41296   2.59578922E+003
      7.41368   2.57935927E+003
      7.41440   2.56312529E+003
      7.41512   2.54708726E+003
      7.41584   2.53124517E+003
      7.41655   2.51559896E+003
      7.41727   2.50014859E+003
      7.41799   2.48489399E+003
      7.41871   2.46983506E+003
      7.41943   2.45497172E+003
      7.42015   2.44030386E+003
      7.42086   2.42583133E+003
      7.42158   2.41155401E+003
      7.42230   2.39747173E+003
      7.42302   2.38358434E+003
      7.42374   2.36989165E+003
      7.42445   2.35639345E+003
      7.42517   2.34308955E+003
      7.42589   2.32997973E+003
      7.42661   2.31706373E+003
      7.42733   2.30434133E+003
      7.42804   2.29181225E+003
      7.42876   2.27947621E+003
      7.42948   2.26733294E+003
      7.43020   2.25538213E+003
      7.43092   2.24362347E+003
      7.43163   2.23205663E+003
      7.43235   2.22068128E+003
      7.43307   2.20949706E+003
      7.43379   2.19850361E+003
      7.43451   2.18770056E+003
      7.43522   2.17708752E+003
      7.43594   2.16666410E+003
      7.43666   2.15642987E+003
      7.43738   2.14638443E+003
      7.43810   2.13652733E+003
      7.43881   2.12685813E+003
      7.43953   2.11737638E+003
      7.44025   2.10808160E+003
      7.44097   2.09897333E+003
      7.44169   2.09005106E+003
      7.44241   2.08131430E+003
      7.44312   2.07276253E+003
      7.44384   2.06439524E+003
      7.44456   2.05621189E+003
      7.44528   2.04821194E+003
      7.44600   2.04039482E+003
      7.44671   2.03275999E+003
      7.44743   2.02530685E+003
      7.44815   2.01803484E+003
      7.44887   2.01094335E+003
      7.44959   2.00403177E+003
      7.45030   1.99729949E+003
      7.45102   1.99074590E+003
      7.45174   1.98437034E+003
      7.45246   1.97817219E+003
      7.45318   1.97215077E+003
      7.45389   1.96630545E+003
      7.45461   1.96063552E+003
      7.45533   1.95514033E+003
      7.45605   1.94981918E+003
      7.45677   1.94467136E+003
      7.45748   1.93969617E+003
      7.45820   1.93489289E+003
      7.45892   1.93026079E+003
      7.45964   1.92579914E+003
      7.46036   1.92150720E+003
      7.46107   1.91738421E+003
      7.46179   1.91342941E+003
      7.46251   1.90964204E+003
      7.46323   1.90602131E+003
      7.46395   1.90256644E+003
      7.46467   1.89927664E+003
      7.46538   1.89615111E+003
      7.46610   1.89318903E+003
      7.46682   1.89038959E+003
      7.46754   1.88775196E+003
      7.46826   1.88527531E+003
      7.46897   1.88295881E+003
      7.46969   1.88080159E+003
      7.47041   1.87880282E+003
      7.47113   1.87696161E+003
      7.47185   1.87527712E+003
      7.47256   1.87374845E+003
      7.47328   1.87237473E+003
      7.47400   1.87115505E+003
      7.47472   1.87008854E+003
      7.47544   1.86917427E+003
      7.47615   1.86841134E+003
      7.47687   1.86779884E+003
      7.47759   1.86733582E+003
      7.47831   1.86702137E+003
      7.47903   1.86685455E+003
      7.47974   1.86683440E+003
      7.48046   1.86695999E+003
      7.48118   1.86723035E+003
      7.48190   1.86764451E+003
      7.48262   1.86820152E+003
      7.48333   1.86890039E+003
      7.48405   1.86974014E+003
      7.48477   1.87071979E+003
      7.48549   1.87183834E+003
      7.48621   1.87309480E+003
      7.48693   1.87448815E+003
      7.48764   1.87601739E+003
      7.48836   1.87768151E+003
      7.48908   1.87947948E+003
      7.48980   1.88141027E+003
      7.49052   1.88347285E+003
      7.49123   1.88566619E+003
      7.49195   1.88798925E+003
      7.49267   1.89044097E+003
      7.49339   1.89302030E+003
      7.49411   1.89572619E+003
      7.49482   1.89855757E+003
      7.49554   1.90151338E+003
      7.49626   1.90459254E+003
      7.49698   1.90779398E+003
      7.49770   1.91111662E+003
      7.49841   1.91455936E+003
      7.49913   1.91812112E+003
      7.49985   1.92180081E+003
      7.50057   1.92559731E+003
      7.50129   1.92950954E+003
      7.50200   1.93353638E+003
      7.50272   1.93767672E+003
      7.50344   1.94192944E+003
      7.50416   1.94629343E+003
      7.50488   1.95076755E+003
      7.50559   1.95535069E+003
      7.50631   1.96004170E+003
      7.50703   1.96483946E+003
      7.50775   1.96974281E+003
      7.50847   1.97475063E+003
      7.50918   1.97986175E+003
      7.50990   1.98507504E+003
      7.51062   1.99038934E+003
      7.51134   1.99580348E+003
      7.51206   2.00131632E+003
      7.51278   2.00692668E+003
      7.51349   2.01263339E+003
      7.51421   2.01843530E+003
      7.51493   2.02433121E+003
      7.51565   2.03031997E+003
      7.51637   2.03640038E+003
      7.51708   2.04257127E+003
      7.51780   2.04883145E+003
      7.51852   2.05517974E+003
      7.51924   2.06161493E+003
      7.51996   2.06813585E+003
      7.52067   2.07474129E+003
      7.52139   2.08143006E+003
      7.52211   2.08820095E+003
      7.52283   2.09505276E+003
      7.52355   2.10198429E+003
      7.52426   2.10899433E+003
      7.52498   2.11608167E+003
      7.52570   2.12324510E+003
      7.52642   2.13048340E+003
      7.52714   2.13779536E+003
      7.52785   2.14517977E+003
      7.52857   2.15263540E+003
      7.52929   2.16016103E+003
      7.53001   2.16775543E+003
      7.53073   2.17541740E+003
      7.53144   2.18314569E+003
      7.53216   2.19093909E+003
      7.53288   2.19879636E+003
      7.53360   2.20671628E+003
      7.53432   2.21469761E+003
      7.53504   2.22273912E+003
      7.53575   2.23083957E+003
      7.53647   2.23899774E+003
      7.53719   2.24721239E+003
      7.53791   2.25548228E+003
      7.53863   2.26380617E+003
      7.53934   2.27218284E+003
      7.54006   2.28061103E+003
      7.54078   2.28908951E+003
      7.54150   2.29761704E+003
      7.54222   2.30619238E+003
      7.54293   2.31481429E+003
      7.54365   2.32348153E+003
      7.54437   2.33219286E+003
      7.54509   2.34094704E+003
      7.54581   2.34974283E+003
      7.54652   2.35857898E+003
      7.54724   2.36745426E+003
      7.54796   2.37636742E+003
      7.54868   2.38531723E+003
      7.54940   2.39430244E+003
      7.55011   2.40332182E+003
      7.55083   2.41237412E+003
      7.55155   2.42145811E+003
      7.55227   2.43057255E+003
      7.55299   2.43971620E+003
      7.55370   2.44888783E+003
      7.55442   2.45808620E+003
      7.55514   2.46731007E+003
      7.55586   2.47655822E+003
      7.55658   2.48582941E+003
      7.55730   2.49512240E+003
      7.55801   2.50443598E+003
      7.55873   2.51376890E+003
      7.55945   2.52311995E+003
      7.56017   2.53248790E+003
      7.56089   2.54187152E+003
      7.56160   2.55126960E+003
      7.56232   2.56068091E+003
      7.56304   2.57010423E+003
      7.56376   2.57953835E+003
      7.56448   2.58898205E+003
      7.56519   2.59843412E+003
      7.56591   2.60789336E+003
      7.56663   2.61735855E+003
      7.56735   2.62682848E+003
      7.56807   2.63630197E+003
      7.56878   2.64577779E+003
      7.56950   2.65525477E+003
      7.57022   2.66473170E+003
      7.57094   2.67420738E+003
      7.57166   2.68368065E+003
      7.57237   2.69315029E+003
      7.57309   2.70261514E+003
      7.57381   2.71207401E+003
      7.57453   2.72152573E+003
      7.57525   2.73096913E+003
      7.57596   2.74040302E+003
      7.57668   2.74982626E+003
      7.57740   2.75923767E+003
      7.57812   2.76863609E+003
      7.57884   2.77802038E+003
      7.57956   2.78738938E+003
      7.58027   2.79674194E+003
      7.58099   2.80607692E+003
      7.58171   2.81539319E+003
      7.58243   2.82468960E+003
      7.58315   2.83396502E+003
      7.58386   2.84321834E+003
      7.58458   2.85244843E+003
      7.58530   2.86165417E+003
      7.58602   2.87083445E+003
      7.58674   2.87998817E+003
      7.58745   2.88911422E+003
      7.58817   2.89821150E+003
      7.58889   2.90727892E+003
      7.58961   2.91631540E+003
      7.59033   2.92531986E+003
      7.59104   2.93429120E+003
      7.59176   2.94322838E+003
      7.59248   2.95213031E+003
      7.59320   2.96099595E+003
      7.59392   2.96982423E+003
      7.59463   2.97861410E+003
      7.59535   2.98736453E+003
      7.59607   2.99607448E+003
      7.59679   3.00474292E+003
      7.59751   3.01336882E+003
      7.59822   3.02195116E+003
      7.59894   3.03048893E+003
      7.59966   3.03898113E+003
      7.60038   3.04742676E+003
      7.60110   3.05582482E+003
      7.60182   3.06417433E+003
      7.60253   3.07247431E+003
      7.60325   3.08072379E+003
      7.60397   3.08892180E+003
      7.60469   3.09706738E+003
      7.60541   3.10515958E+003
      7.60612   3.11319746E+003
      7.60684   3.12118008E+003
      7.60756   3.12910650E+003
      7.60828   3.13697582E+003
      7.60900   3.14478711E+003
      7.60971   3.15253946E+003
      7.61043   3.16023198E+003
      7.61115   3.16786377E+003
      7.61187   3.17543395E+003
      7.61259   3.18294165E+003
      7.61330   3.19038599E+003
      7.61402   3.19776611E+003
      7.61474   3.20508117E+003
      7.61546   3.21233031E+003
      7.61618   3.21951270E+003
      7.61689   3.22662752E+003
      7.61761   3.23367395E+003
      7.61833   3.24065117E+003
      7.61905   3.24755838E+003
      7.61977   3.25439479E+003
      7.62048   3.26115962E+003
      7.62120   3.26785208E+003
      7.62192   3.27447142E+003
      7.62264   3.28101686E+003
      7.62336   3.28748768E+003
      7.62408   3.29388311E+003
      7.62479   3.30020244E+003
      7.62551   3.30644494E+003
      7.62623   3.31260989E+003
      7.62695   3.31869660E+003
      7.62767   3.32470437E+003
      7.62838   3.33063251E+003
      7.62910   3.33648036E+003
      7.62982   3.34224723E+003
      7.63054   3.34793249E+003
      7.63126   3.35353548E+003
      7.63197   3.35905556E+003
      7.63269   3.36449211E+003
      7.63341   3.36984450E+003
      7.63413   3.37511214E+003
      7.63485   3.38029443E+003
      7.63556   3.38539077E+003
      7.63628   3.39040060E+003
      7.63700   3.39532333E+003
      7.63772   3.40015842E+003
      7.63844   3.40490532E+003
      7.63915   3.40956349E+003
      7.63987   3.41413241E+003
      7.64059   3.41861155E+003
      7.64131   3.42300041E+003
      7.64203   3.42729850E+003
      7.64274   3.43150533E+003
      7.64346   3.43562042E+003
      7.64418   3.43964332E+003
      7.64490   3.44357356E+003
      7.64562   3.44741070E+003
      7.64634   3.45115432E+003
      7.64705   3.45480398E+003
      7.64777   3.45835928E+003
      7.64849   3.46181981E+003
      7.64921   3.46518519E+003
      7.64993   3.46845504E+003
      7.65064   3.47162898E+003
      7.65136   3.47470666E+003
      7.65208   3.47768772E+003
      7.65280   3.48057185E+003
      7.65352   3.48335870E+003
      7.65423   3.48604797E+003
      7.65495   3.48863935E+003
      7.65567   3.49113254E+003
      7.65639   3.49352727E+003
      7.65711   3.49582326E+003
      7.65782   3.49802025E+003
      7.65854   3.50011800E+003
      7.65926   3.50211626E+003
      7.65998   3.50401481E+003
      7.66070   3.50581342E+003
      7.66141   3.50751191E+003
      7.66213   3.50911006E+003
      7.66285   3.51060769E+003
      7.66357   3.51200464E+003
      7.66429   3.51330074E+003
      7.66500   3.51449584E+003
      7.66572   3.51558979E+003
      7.66644   3.51658248E+003
      7.66716   3.51747377E+003
      7.66788   3.51826357E+003
      7.66860   3.51895178E+003
      7.66931   3.51953830E+003
      7.67003   3.52002308E+003
      7.67075   3.52040603E+003
      7.67147   3.52068711E+003
      7.67219   3.52086628E+003
      7.67290   3.52094351E+003
      7.67362   3.52091876E+003
      7.67434   3.52079204E+003
      7.67506   3.52056335E+003
      7.67578   3.52023269E+003
      7.67649   3.51980008E+003
      7.67721   3.51926557E+003
      7.67793   3.51862919E+003
      7.67865   3.51789100E+003
      7.67937   3.51705106E+003
      7.68008   3.51610944E+003
      7.68080   3.51506623E+003
      7.68152   3.51392153E+003
      7.68224   3.51267545E+003
      7.68296   3.51132809E+003
      7.68367   3.50987959E+003
      7.68439   3.50833009E+003
      7.68511   3.50667972E+003
      7.68583   3.50492865E+003
      7.68655   3.50307705E+003
      7.68726   3.50112509E+003
      7.68798   3.49907296E+003
      7.68870   3.49692086E+003
      7.68942   3.49466899E+003
      7.69014   3.49231758E+003
      7.69085   3.48986685E+003
      7.69157   3.48731704E+003
      7.69229   3.48466839E+003
      7.69301   3.48192117E+003
      7.69373   3.47907563E+003
      7.69445   3.47613205E+003
      7.69516   3.47309073E+003
      7.69588   3.46995194E+003
      7.69660   3.46671600E+003
      7.69732   3.46338322E+003
      7.69804   3.45995393E+003
      7.69875   3.45642844E+003
      7.69947   3.45280711E+003
      7.70019   3.44909028E+003
      7.70091   3.44527831E+003
      7.70163   3.44137157E+003
      7.70234   3.43737044E+003
      7.70306   3.43327529E+003
      7.70378   3.42908653E+003
      7.70450   3.42480455E+003
      7.70522   3.42042976E+003
      7.70593   3.41596259E+003
      7.70665   3.41140346E+003
      7.70737   3.40675281E+003
      7.70809   3.40201107E+003
      7.70881   3.39717870E+003
      7.70952   3.39225617E+003
      7.71024   3.38724393E+003
      7.71096   3.38214246E+003
      7.71168   3.37695225E+003
      7.71240   3.37167378E+003
      7.71311   3.36630755E+003
      7.71383   3.36085408E+003
      7.71455   3.35531386E+003
      7.71527   3.34968743E+003
      7.71599   3.34397531E+003
      7.71671   3.33817803E+003
      7.71742   3.33229613E+003
      7.71814   3.32633016E+003
      7.71886   3.32028068E+003
      7.71958   3.31414825E+003
      7.72030   3.30793344E+003
      7.72101   3.30163682E+003
      7.72173   3.29525897E+003
      7.72245   3.28880048E+003
      7.72317   3.28226194E+003
      7.72389   3.27564396E+003
      7.72460   3.26894713E+003
      7.72532   3.26217208E+003
      7.72604   3.25531941E+003
      7.72676   3.24838975E+003
      7.72748   3.24138373E+003
      7.72819   3.23430199E+003
      7.72891   3.22714515E+003
      7.72963   3.21991388E+003
      7.73035   3.21260881E+003
      7.73107   3.20523061E+003
      7.73178   3.19777992E+003
      7.73250   3.19025743E+003
      7.73322   3.18266379E+003
      7.73394   3.17499968E+003
      7.73466   3.16726578E+003
      7.73537   3.15946277E+003
      7.73609   3.15159135E+003
      7.73681   3.14365219E+003
      7.73753   3.13564600E+003
      7.73825   3.12757348E+003
      7.73897   3.11943533E+003
      7.73968   3.11123226E+003
      7.74040   3.10296498E+003
      7.74112   3.09463420E+003
      7.74184   3.08624065E+003
      7.74256   3.07778503E+003
      7.74327   3.06926809E+003
      7.74399   3.06069054E+003
      7.74471   3.05205312E+003
      7.74543   3.04335655E+003
      7.74615   3.03460159E+003
      7.74686   3.02578896E+003
      7.74758   3.01691941E+003
      7.74830   3.00799368E+003
      7.74902   2.99901251E+003
      7.74974   2.98997667E+003
      7.75045   2.98088689E+003
      7.75117   2.97174394E+003
      7.75189   2.96254856E+003
      7.75261   2.95330151E+003
      7.75333   2.94400356E+003
      7.75404   2.93465545E+003
      7.75476   2.92525796E+003
      7.75548   2.91581185E+003
      7.75620   2.90631787E+003
      7.75692   2.89677680E+003
      7.75763   2.88718940E+003
      7.75835   2.87755645E+003
      7.75907   2.86787869E+003
      7.75979   2.85815692E+003
      7.76051   2.84839189E+003
      7.76123   2.83858438E+003
      7.76194   2.82873515E+003
      7.76266   2.81884499E+003
      7.76338   2.80891465E+003
      7.76410   2.79894491E+003
      7.76482   2.78893655E+003
      7.76553   2.77889033E+003
      7.76625   2.76880702E+003
      7.76697   2.75868740E+003
      7.76769   2.74853224E+003
      7.76841   2.73834230E+003
      7.76912   2.72811836E+003
      7.76984   2.71786118E+003
      7.77056   2.70757154E+003
      7.77128   2.69725019E+003
      7.77200   2.68689792E+003
      7.77271   2.67651547E+003
      7.77343   2.66610362E+003
      7.77415   2.65566313E+003
      7.77487   2.64519475E+003
      7.77559   2.63469926E+003
      7.77630   2.62417741E+003
      7.77702   2.61362995E+003
      7.77774   2.60305765E+003
      7.77846   2.59246124E+003
      7.77918   2.58184150E+003
      7.77989   2.57119916E+003
      7.78061   2.56053498E+003
      7.78133   2.54984969E+003
      7.78205   2.53914405E+003
      7.78277   2.52841880E+003
      7.78349   2.51767466E+003
      7.78420   2.50691239E+003
      7.78492   2.49613271E+003
      7.78564   2.48533635E+003
      7.78636   2.47452404E+003
      7.78708   2.46369652E+003
      7.78779   2.45285449E+003
      7.78851   2.44199869E+003
      7.78923   2.43112982E+003
      7.78995   2.42024861E+003
      7.79067   2.40935576E+003
      7.79138   2.39845197E+003
      7.79210   2.38753797E+003
      7.79282   2.37661443E+003
      7.79354   2.36568207E+003
      7.79426   2.35474158E+003
      7.79497   2.34379364E+003
      7.79569   2.33283895E+003
      7.79641   2.32187818E+003
      7.79713   2.31091201E+003
      7.79785   2.29994113E+003
      7.79856   2.28896620E+003
      7.79928   2.27798789E+003
      7.80000   2.26700687E+003
      7.80072   2.25602378E+003
      7.80144   2.24503930E+003
      7.80215   2.23405406E+003
      7.80287   2.22306872E+003
      7.80359   2.21208392E+003
      7.80431   2.20110030E+003
      7.80503   2.19011849E+003
      7.80575   2.17913912E+003
      7.80646   2.16816282E+003
      7.80718   2.15719020E+003
      7.80790   2.14622188E+003
      7.80862   2.13525848E+003
      7.80934   2.12430060E+003
      7.81005   2.11334884E+003
      7.81077   2.10240380E+003
      7.81149   2.09146606E+003
      7.81221   2.08053623E+003
      7.81293   2.06961488E+003
      7.81364   2.05870259E+003
      7.81436   2.04779992E+003
      7.81508   2.03690746E+003
      7.81580   2.02602575E+003
      7.81652   2.01515537E+003
      7.81723   2.00429685E+003
      7.81795   1.99345075E+003
      7.81867   1.98261761E+003
      7.81939   1.97179797E+003
      7.82011   1.96099236E+003
      7.82082   1.95020130E+003
      7.82154   1.93942531E+003
      7.82226   1.92866492E+003
      7.82298   1.91792062E+003
      7.82370   1.90719293E+003
      7.82441   1.89648235E+003
      7.82513   1.88578937E+003
      7.82585   1.87511447E+003
      7.82657   1.86445815E+003
      7.82729   1.85382087E+003
      7.82801   1.84320312E+003
      7.82872   1.83260535E+003
      7.82944   1.82202804E+003
      7.83016   1.81147163E+003
      7.83088   1.80093657E+003
      7.83160   1.79042332E+003
      7.83231   1.77993230E+003
      7.83303   1.76946396E+003
      7.83375   1.75901872E+003
      7.83447   1.74859700E+003
      7.83519   1.73819922E+003
      7.83590   1.72782580E+003
      7.83662   1.71747713E+003
      7.83734   1.70715361E+003
      7.83806   1.69685565E+003
      7.83878   1.68658362E+003
      7.83949   1.67633792E+003
      7.84021   1.66611892E+003
      7.84093   1.65592699E+003
      7.84165   1.64576250E+003
      7.84237   1.63562580E+003
      7.84308   1.62551726E+003
      7.84380   1.61543723E+003
      7.84452   1.60538604E+003
      7.84524   1.59536403E+003
      7.84596   1.58537154E+003
      7.84667   1.57540890E+003
      7.84739   1.56547642E+003
      7.84811   1.55557442E+003
      7.84883   1.54570322E+003
      7.84955   1.53586311E+003
      7.85027   1.52605440E+003
      7.85098   1.51627738E+003
      7.85170   1.50653233E+003
      7.85242   1.49681955E+003
      7.85314   1.48713930E+003
      7.85386   1.47749187E+003
      7.85457   1.46787751E+003
      7.85529   1.45829649E+003
      7.85601   1.44874906E+003
      7.85673   1.43923548E+003
      7.85745   1.42975598E+003
      7.85816   1.42031081E+003
      7.85888   1.41090020E+003
      7.85960   1.40152438E+003
      7.86032   1.39218358E+003
      7.86104   1.38287801E+003
      7.86175   1.37360788E+003
      7.86247   1.36437341E+003
      7.86319   1.35517479E+003
      7.86391   1.34601223E+003
      7.86463   1.33688591E+003
      7.86534   1.32779603E+003
      7.86606   1.31874276E+003
      7.86678   1.30972629E+003
      7.86750   1.30074678E+003
      7.86822   1.29180441E+003
      7.86893   1.28289932E+003
      7.86965   1.27403170E+003
      7.87037   1.26520167E+003
      7.87109   1.25640940E+003
      7.87181   1.24765502E+003
      7.87253   1.23893868E+003
      7.87324   1.23026050E+003
      7.87396   1.22162061E+003
      7.87468   1.21301915E+003
      7.87540   1.20445622E+003
      7.87612   1.19593194E+003
      7.87683   1.18744642E+003
      7.87755   1.17899978E+003
      7.87827   1.17059209E+003
      7.87899   1.16222348E+003
      7.87971   1.15389402E+003
      7.88042   1.14560380E+003
      7.88114   1.13735290E+003
      7.88186   1.12914142E+003
      7.88258   1.12096941E+003
      7.88330   1.11283695E+003
      7.88401   1.10474410E+003
      7.88473   1.09669094E+003
      7.88545   1.08867750E+003
      7.88617   1.08070386E+003
      7.88689   1.07277005E+003
      7.88760   1.06487612E+003
      7.88832   1.05702212E+003
      7.88904   1.04920808E+003
      7.88976   1.04143403E+003
      7.89048   1.03370001E+003
      7.89119   1.02600603E+003
      7.89191   1.01835213E+003
      7.89263   1.01073831E+003
      7.89335   1.00316461E+003
      7.89407   9.95631011E+002
      7.89478   9.88137538E+002
      7.89550   9.80684192E+002
      7.89622   9.73270971E+002
      7.89694   9.65897872E+002
      7.89766   9.58564889E+002
      7.89838   9.51272010E+002
      7.89909   9.44019223E+002
      7.89981   9.36806509E+002
      7.90053   9.29633850E+002
      7.90125   9.22501220E+002
      7.90197   9.15408594E+002
      7.90268   9.08355941E+002
      7.90340   9.01343228E+002
      7.90412   8.94370419E+002
      7.90484   8.87437475E+002
      7.90556   8.80544353E+002
      7.90627   8.73691009E+002
      7.90699   8.66877393E+002
      7.90771   8.60103456E+002
      7.90843   8.53369143E+002
      7.90915   8.46674398E+002
      7.90986   8.40019162E+002
      7.91058   8.33403371E+002
      7.91130   8.26826962E+002
      7.91202   8.20289868E+002
      7.91274   8.13792017E+002
      7.91345   8.07333339E+002
      7.91417   8.00913757E+002
      7.91489   7.94533195E+002
      7.91561   7.88191573E+002
      7.91633   7.81888808E+002
      7.91704   7.75624815E+002
      7.91776   7.69399509E+002
      7.91848   7.63212800E+002
      7.91920   7.57064597E+002
      7.91992   7.50954805E+002
      7.92064   7.44883331E+002
      7.92135   7.38850075E+002
      7.92207   7.32854939E+002
      7.92279   7.26897820E+002
      7.92351   7.20978615E+002
      7.92423   7.15097218E+002
      7.92494   7.09253521E+002
      7.92566   7.03447416E+002
      7.92638   6.97678790E+002
      7.92710   6.91947532E+002
      7.92782   6.86253526E+002
      7.92853   6.80596655E+002
      7.92925   6.74976802E+002
      7.92997   6.69393848E+002
      7.93069   6.63847669E+002
      7.93141   6.58338145E+002
      7.93212   6.52865150E+002
      7.93284   6.47428558E+002
      7.93356   6.42028243E+002
      7.93428   6.36664075E+002
      7.93500   6.31335925E+002
      7.93571   6.26043660E+002
      7.93643   6.20787149E+002
      7.93715   6.15566257E+002
      7.93787   6.10380849E+002
      7.93859   6.05230789E+002
      7.93930   6.00115938E+002
      7.94002   5.95036159E+002
      7.94074   5.89991311E+002
      7.94146   5.84981253E+002
      7.94218   5.80005845E+002
      7.94290   5.75064941E+002
      7.94361   5.70158400E+002
      7.94433   5.65286075E+002
      7.94505   5.60447822E+002
      7.94577   5.55643493E+002
      7.94649   5.50872941E+002
      7.94720   5.46136018E+002
      7.94792   5.41432575E+002
      7.94864   5.36762462E+002
      7.94936   5.32125528E+002
      7.95008   5.27521622E+002
      7.95079   5.22950593E+002
      7.95151   5.18412287E+002
      7.95223   5.13906552E+002
      7.95295   5.09433234E+002
      7.95367   5.04992178E+002
      7.95438   5.00583230E+002
      7.95510   4.96206235E+002
      7.95582   4.91861037E+002
      7.95654   4.87547479E+002
      7.95726   4.83265405E+002
      7.95797   4.79014657E+002
      7.95869   4.74795079E+002
      7.95941   4.70606513E+002
      7.96013   4.66448800E+002
      7.96085   4.62321782E+002
      7.96156   4.58225301E+002
      7.96228   4.54159198E+002
      7.96300   4.50123313E+002
      7.96372   4.46117487E+002
      7.96444   4.42141561E+002
      7.96516   4.38195374E+002
      7.96587   4.34278768E+002
      7.96659   4.30391582E+002
      7.96731   4.26533656E+002
      7.96803   4.22704830E+002
      7.96875   4.18904945E+002
      7.96946   4.15133838E+002
      7.97018   4.11391352E+002
      7.97090   4.07677324E+002
      7.97162   4.03991596E+002
      7.97234   4.00334006E+002
      7.97305   3.96704396E+002
      7.97377   3.93102604E+002
      7.97449   3.89528472E+002
      7.97521   3.85981838E+002
      7.97593   3.82462544E+002
      7.97664   3.78970430E+002
      7.97736   3.75505337E+002
      7.97808   3.72067106E+002
      7.97880   3.68655577E+002
      7.97952   3.65270591E+002
      7.98023   3.61911991E+002
      7.98095   3.58579618E+002
      7.98167   3.55273314E+002
      7.98239   3.51992922E+002
      7.98311   3.48738283E+002
      7.98382   3.45509240E+002
      7.98454   3.42305638E+002
      7.98526   3.39127318E+002
      7.98598   3.35974126E+002
      7.98670   3.32845904E+002
      7.98742   3.29742499E+002
      7.98813   3.26663754E+002
      7.98885   3.23609515E+002
      7.98957   3.20579628E+002
      7.99029   3.17573938E+002
      7.99101   3.14592293E+002
      7.99172   3.11634538E+002
      7.99244   3.08700523E+002
      7.99316   3.05790093E+002
      7.99388   3.02903099E+002
      7.99460   3.00039388E+002
      7.99531   2.97198809E+002
      7.99603   2.94381214E+002
      7.99675   2.91586451E+002
      7.99747   2.88814371E+002
      7.99819   2.86064827E+002
      7.99890   2.83337669E+002
      7.99962   2.80632750E+002
      8.00034   2.77949922E+002
      8.00106   2.75289040E+002
      8.00178   2.72649958E+002
      8.00249   2.70032528E+002
      8.00321   2.67436608E+002
      8.00393   2.64862052E+002
      8.00465   2.62308717E+002
      8.00537   2.59776459E+002
      8.00608   2.57265137E+002
      8.00680   2.54774607E+002
      8.00752   2.52304729E+002
      8.00824   2.49855362E+002
      8.00896   2.47426365E+002
      8.00968   2.45017600E+002
      8.01039   2.42628926E+002
      8.01111   2.40260207E+002
      8.01183   2.37911304E+002
      8.01255   2.35582080E+002
      8.01327   2.33272399E+002
      8.01398   2.30982125E+002
      8.01470   2.28711122E+002
      8.01542   2.26459257E+002
      8.01614   2.24226396E+002
      8.01686   2.22012405E+002
      8.01757   2.19817152E+002
      8.01829   2.17640506E+002
      8.01901   2.15482334E+002
      8.01973   2.13342506E+002
      8.02045   2.11220893E+002
      8.02116   2.09117365E+002
      8.02188   2.07031793E+002
      8.02260   2.04964051E+002
      8.02332   2.02914010E+002
      8.02404   2.00881545E+002
      8.02475   1.98866528E+002
      8.02547   1.96868836E+002
      8.02619   1.94888344E+002
      8.02691   1.92924927E+002
      8.02763   1.90978462E+002
      8.02834   1.89048828E+002
      8.02906   1.87135902E+002
      8.02978   1.85239564E+002
      8.03050   1.83359692E+002
      8.03122   1.81496167E+002
      8.03194   1.79648870E+002
      8.03265   1.77817682E+002
      8.03337   1.76002486E+002
      8.03409   1.74203165E+002
      8.03481   1.72419602E+002
      8.03553   1.70651682E+002
      8.03624   1.68899289E+002
      8.03696   1.67162310E+002
      8.03768   1.65440629E+002
      8.03840   1.63734135E+002
      8.03912   1.62042716E+002
      8.03983   1.60366258E+002
      8.04055   1.58704652E+002
      8.04127   1.57057787E+002
      8.04199   1.55425553E+002
      8.04271   1.53807841E+002
      8.04342   1.52204544E+002
      8.04414   1.50615552E+002
      8.04486   1.49040760E+002
      8.04558   1.47480060E+002
      8.04630   1.45933347E+002
      8.04701   1.44400516E+002
      8.04773   1.42881462E+002
      8.04845   1.41376082E+002
      8.04917   1.39884272E+002
      8.04989   1.38405931E+002
      8.05060   1.36940955E+002
      8.05132   1.35489244E+002
      8.05204   1.34050697E+002
      8.05276   1.32625215E+002
      8.05348   1.31212697E+002
      8.05420   1.29813046E+002
      8.05491   1.28426163E+002
      8.05563   1.27051950E+002
      8.05635   1.25690311E+002
      8.05707   1.24341150E+002
      8.05779   1.23004370E+002
      8.05850   1.21679878E+002
      8.05922   1.20367578E+002
      8.05994   1.19067377E+002
      8.06066   1.17779182E+002
      8.06138   1.16502900E+002
      8.06209   1.15238438E+002
      8.06281   1.13985707E+002
      8.06353   1.12744614E+002
      8.06425   1.11515070E+002
      8.06497   1.10296985E+002
      8.06568   1.09090271E+002
      8.06640   1.07894837E+002
      8.06712   1.06710598E+002
      8.06784   1.05537465E+002
      8.06856   1.04375351E+002
      8.06927   1.03224171E+002
      8.06999   1.02083840E+002
      8.07071   1.00954270E+002
      8.07143   9.98353799E+001
      8.07215   9.87270837E+001
      8.07286   9.76292987E+001
      8.07358   9.65419420E+001
      8.07430   9.54649313E+001
      8.07502   9.43981849E+001
      8.07574   9.33416215E+001
      8.07646   9.22951607E+001
      8.07717   9.12587221E+001
      8.07789   9.02322263E+001
      8.07861   8.92155941E+001
      8.07933   8.82087471E+001
      8.08005   8.72116071E+001
      8.08076   8.62240968E+001
      8.08148   8.52461390E+001
      8.08220   8.42776574E+001
      8.08292   8.33185760E+001
      8.08364   8.23688192E+001
      8.08435   8.14283122E+001
      8.08507   8.04969805E+001
      8.08579   7.95747500E+001
      8.08651   7.86615474E+001
      8.08723   7.77572997E+001
      8.08794   7.68619343E+001
      8.08866   7.59753792E+001
      8.08938   7.50975630E+001
      8.09010   7.42284145E+001
      8.09082   7.33678632E+001
      8.09153   7.25158390E+001
      8.09225   7.16722722E+001
      8.09297   7.08370936E+001
      8.09369   7.00102346E+001
      8.09441   6.91916268E+001
      8.09512   6.83812026E+001
      8.09584   6.75788945E+001
      8.09656   6.67846357E+001
      8.09728   6.59983598E+001
      8.09800   6.52200006E+001
      8.09871   6.44494928E+001
      8.09943   6.36867711E+001
      8.10015   6.29317709E+001
      8.10087   6.21844280E+001
      8.10159   6.14446785E+001
      8.10231   6.07124590E+001
      8.10302   5.99877067E+001
      8.10374   5.92703590E+001
      8.10446   5.85603537E+001
      8.10518   5.78576292E+001
      8.10590   5.71621242E+001
      8.10661   5.64737779E+001
      8.10733   5.57925297E+001
      8.10805   5.51183197E+001
      8.10877   5.44510881E+001
      8.10949   5.37907759E+001
      8.11020   5.31373240E+001
      8.11092   5.24906741E+001
      8.11164   5.18507682E+001
      8.11236   5.12175485E+001
      8.11308   5.05909579E+001
      8.11379   4.99709394E+001
      8.11451   4.93574365E+001
      8.11523   4.87503932E+001
      8.11595   4.81497537E+001
      8.11667   4.75554627E+001
      8.11738   4.69674652E+001
      8.11810   4.63857066E+001
      8.11882   4.58101327E+001
      8.11954   4.52406896E+001
      8.12026   4.46773239E+001
      8.12097   4.41199823E+001
      8.12169   4.35686122E+001
      8.12241   4.30231611E+001
      8.12313   4.24835770E+001
      8.12385   4.19498083E+001
      8.12457   4.14218035E+001
      8.12528   4.08995117E+001
      8.12600   4.03828823E+001
      8.12672   3.98718649E+001
      8.12744   3.93664097E+001
      8.12816   3.88664671E+001
      8.12887   3.83719877E+001
      8.12959   3.78829227E+001
      8.13031   3.73992236E+001
      8.13103   3.69208420E+001
      8.13175   3.64477300E+001
      8.13246   3.59798402E+001
      8.13318   3.55171252E+001
      8.13390   3.50595381E+001
      8.13462   3.46070324E+001
      8.13534   3.41595617E+001
      8.13605   3.37170802E+001
      8.13677   3.32795423E+001
      8.13749   3.28469025E+001
      8.13821   3.24191160E+001
      8.13893   3.19961381E+001
      8.13964   3.15779243E+001
      8.14036   3.11644308E+001
      8.14108   3.07556137E+001
      8.14180   3.03514297E+001
      8.14252   2.99518355E+001
      8.14323   2.95567885E+001
      8.14395   2.91662461E+001
      8.14467   2.87801661E+001
      8.14539   2.83985066E+001
      8.14611   2.80212260E+001
      8.14683   2.76482830E+001
      8.14754   2.72796366E+001
      8.14826   2.69152460E+001
      8.14898   2.65550710E+001
      8.14970   2.61990712E+001
      8.15042   2.58472069E+001
      8.15113   2.54994386E+001
      8.15185   2.51557269E+001
      8.15257   2.48160329E+001
      8.15329   2.44803179E+001
      8.15401   2.41485435E+001
      8.15472   2.38206715E+001
      8.15544   2.34966642E+001
      8.15616   2.31764838E+001
      8.15688   2.28600932E+001
      8.15760   2.25474552E+001
      8.15831   2.22385332E+001
      8.15903   2.19332907E+001
      8.15975   2.16316914E+001
      8.16047   2.13336994E+001
      8.16119   2.10392791E+001
      8.16190   2.07483951E+001
      8.16262   2.04610122E+001
      8.16334   2.01770955E+001
      8.16406   1.98966105E+001
      8.16478   1.96195227E+001
      8.16549   1.93457982E+001
      8.16621   1.90754030E+001
      8.16693   1.88083036E+001
      8.16765   1.85444668E+001
      8.16837   1.82838593E+001
      8.16909   1.80264485E+001
      8.16980   1.77722018E+001
      8.17052   1.75210868E+001
      8.17124   1.72730716E+001
      8.17196   1.70281243E+001
      8.17268   1.67862133E+001
      8.17339   1.65473074E+001
      8.17411   1.63113755E+001
      8.17483   1.60783868E+001
      8.17555   1.58483107E+001
      8.17627   1.56211168E+001
      8.17698   1.53967751E+001
      8.17770   1.51752557E+001
      8.17842   1.49565290E+001
      8.17914   1.47405656E+001
      8.17986   1.45273364E+001
      8.18057   1.43168125E+001
      8.18129   1.41089651E+001
      8.18201   1.39037658E+001
      8.18273   1.37011865E+001
      8.18345   1.35011991E+001
      8.18416   1.33037758E+001
      8.18488   1.31088892E+001
      8.18560   1.29165119E+001
      8.18632   1.27266168E+001
      8.18704   1.25391772E+001
      8.18775   1.23541663E+001
      8.18847   1.21715577E+001
      8.18919   1.19913253E+001
      8.18991   1.18134431E+001
      8.19063   1.16378853E+001
      8.19135   1.14646264E+001
      8.19206   1.12936411E+001
      8.19278   1.11249042E+001
      8.19350   1.09583908E+001
      8.19422   1.07940764E+001
      8.19494   1.06319363E+001
      8.19565   1.04719464E+001
      8.19637   1.03140826E+001
      8.19709   1.01583211E+001
      8.19781   1.00046381E+001
      8.19853   9.85301036E+000
      8.19924   9.70341455E+000
      8.19996   9.55582766E+000
      8.20068   9.41022689E+000
      8.20140   9.26658959E+000
      8.20212   9.12489337E+000
      8.20283   8.98511599E+000
      8.20355   8.84723543E+000
      8.20427   8.71122986E+000
      8.20499   8.57707766E+000
      8.20571   8.44475738E+000
      8.20642   8.31424778E+000
      8.20714   8.18552782E+000
      8.20786   8.05857662E+000
      8.20858   7.93337353E+000
      8.20930   7.80989806E+000
      8.21001   7.68812991E+000
      8.21073   7.56804899E+000
      8.21145   7.44963538E+000
      8.21217   7.33286933E+000
      8.21289   7.21773129E+000
      8.21361   7.10420190E+000
      8.21432   6.99226197E+000
      8.21504   6.88189249E+000
      8.21576   6.77307463E+000
      8.21648   6.66578975E+000
      8.21720   6.56001936E+000
      8.21791   6.45574518E+000
      8.21863   6.35294908E+000
      8.21935   6.25161310E+000
      8.22007   6.15171949E+000
      8.22079   6.05325062E+000
      8.22150   5.95618907E+000
      8.22222   5.86051758E+000
      8.22294   5.76621905E+000
      8.22366   5.67327655E+000
      8.22438   5.58167331E+000
      8.22509   5.49139275E+000
      8.22581   5.40241843E+000
      8.22653   5.31473408E+000
      8.22725   5.22832360E+000
      8.22797   5.14317103E+000
      8.22868   5.05926059E+000
      8.22940   4.97657665E+000
      8.23012   4.89510375E+000
      8.23084   4.81482657E+000
      8.23156   4.73572994E+000
      8.23227   4.65779888E+000
      8.23299   4.58101853E+000
      8.23371   4.50537418E+000
      8.23443   4.43085130E+000
      8.23515   4.35743550E+000
      8.23587   4.28511251E+000
      8.23658   4.21386826E+000
      8.23730   4.14368878E+000
      8.23802   4.07456027E+000
      8.23874   4.00646907E+000
      8.23946   3.93940166E+000
      8.24017   3.87334468E+000
      8.24089   3.80828490E+000
      8.24161   3.74420921E+000
      8.24233   3.68110468E+000
      8.24305   3.61895850E+000
      8.24376   3.55775798E+000
      8.24448   3.49749059E+000
      8.24520   3.43814394E+000
      8.24592   3.37970576E+000
      8.24664   3.32216392E+000
      8.24735   3.26550641E+000
      8.24807   3.20972136E+000
      8.24879   3.15479706E+000
      8.24951   3.10072187E+000
      8.25023   3.04748433E+000
      8.25094   2.99507309E+000
      8.25166   2.94347692E+000
      8.25238   2.89268472E+000
      8.25310   2.84268552E+000
      8.25382   2.79346847E+000
      8.25453   2.74502284E+000
      8.25525   2.69733802E+000
      8.25597   2.65040353E+000
      8.25669   2.60420901E+000
      8.25741   2.55874419E+000
      8.25813   2.51399897E+000
      8.25884   2.46996332E+000
      8.25956   2.42662734E+000
      8.26028   2.38398126E+000
      8.26100   2.34201540E+000
      8.26172   2.30072022E+000
      8.26243   2.26008626E+000
      8.26315   2.22010419E+000
      8.26387   2.18076479E+000
      8.26459   2.14205895E+000
      8.26531   2.10397766E+000
      8.26602   2.06651202E+000
      8.26674   2.02965324E+000
      8.26746   1.99339263E+000
      8.26818   1.95772161E+000
      8.26890   1.92263170E+000
