      6.12749   7.21916426E+000
      6.12821   7.35169849E+000
      6.12893   7.48643915E+000
      6.12965   7.62341848E+000
      6.13037   7.76266914E+000
      6.13109   7.90422417E+000
      6.13180   8.04811698E+000
      6.13252   8.19438142E+000
      6.13324   8.34305170E+000
      6.13396   8.49416248E+000
      6.13468   8.64774878E+000
      6.13540   8.80384607E+000
      6.13612   8.96249022E+000
      6.13683   9.12371750E+000
      6.13755   9.28756464E+000
      6.13827   9.45406875E+000
      6.13899   9.62326740E+000
      6.13971   9.79519858E+000
      6.14043   9.96990071E+000
      6.14114   1.01474127E+001
      6.14186   1.03277737E+001
      6.14258   1.05110236E+001
      6.14330   1.06972026E+001
      6.14402   1.08863512E+001
      6.14474   1.10785106E+001
      6.14545   1.12737223E+001
      6.14617   1.14720284E+001
      6.14689   1.16734713E+001
      6.14761   1.18780939E+001
      6.14833   1.20859397E+001
      6.14905   1.22970525E+001
      6.14977   1.25114766E+001
      6.15048   1.27292570E+001
      6.15120   1.29504389E+001
      6.15192   1.31750680E+001
      6.15264   1.34031908E+001
      6.15336   1.36348540E+001
      6.15408   1.38701047E+001
      6.15479   1.41089909E+001
      6.15551   1.43515607E+001
      6.15623   1.45978629E+001
      6.15695   1.48479468E+001
      6.15767   1.51018621E+001
      6.15839   1.53596592E+001
      6.15911   1.56213888E+001
      6.15982   1.58871023E+001
      6.16054   1.61568515E+001
      6.16126   1.64306887E+001
      6.16198   1.67086669E+001
      6.16270   1.69908394E+001
      6.16342   1.72772602E+001
      6.16413   1.75679838E+001
      6.16485   1.78630651E+001
      6.16557   1.81625598E+001
      6.16629   1.84665239E+001
      6.16701   1.87750141E+001
      6.16773   1.90880874E+001
      6.16844   1.94058017E+001
      6.16916   1.97282153E+001
      6.16988   2.00553869E+001
      6.17060   2.03873760E+001
      6.17132   2.07242425E+001
      6.17204   2.10660470E+001
      6.17276   2.14128504E+001
      6.17347   2.17647144E+001
      6.17419   2.21217013E+001
      6.17491   2.24838737E+001
      6.17563   2.28512951E+001
      6.17635   2.32240294E+001
      6.17707   2.36021410E+001
      6.17778   2.39856950E+001
      6.17850   2.43747571E+001
      6.17922   2.47693936E+001
      6.17994   2.51696711E+001
      6.18066   2.55756572E+001
      6.18138   2.59874198E+001
      6.18210   2.64050275E+001
      6.18281   2.68285495E+001
      6.18353   2.72580554E+001
      6.18425   2.76936158E+001
      6.18497   2.81353014E+001
      6.18569   2.85831839E+001
      6.18641   2.90373355E+001
      6.18712   2.94978287E+001
      6.18784   2.99647370E+001
      6.18856   3.04381344E+001
      6.18928   3.09180952E+001
      6.19000   3.14046948E+001
      6.19072   3.18980089E+001
      6.19143   3.23981137E+001
      6.19215   3.29050863E+001
      6.19287   3.34190043E+001
      6.19359   3.39399457E+001
      6.19431   3.44679894E+001
      6.19503   3.50032148E+001
      6.19575   3.55457019E+001
      6.19646   3.60955313E+001
      6.19718   3.66527842E+001
      6.19790   3.72175424E+001
      6.19862   3.77898884E+001
      6.19934   3.83699053E+001
      6.20006   3.89576766E+001
      6.20077   3.95532867E+001
      6.20149   4.01568204E+001
      6.20221   4.07683633E+001
      6.20293   4.13880014E+001
      6.20365   4.20158215E+001
      6.20437   4.26519109E+001
      6.20509   4.32963574E+001
      6.20580   4.39492497E+001
      6.20652   4.46106769E+001
      6.20724   4.52807287E+001
      6.20796   4.59594955E+001
      6.20868   4.66470682E+001
      6.20940   4.73435385E+001
      6.21011   4.80489984E+001
      6.21083   4.87635408E+001
      6.21155   4.94872590E+001
      6.21227   5.02202470E+001
      6.21299   5.09625993E+001
      6.21371   5.17144111E+001
      6.21442   5.24757781E+001
      6.21514   5.32467967E+001
      6.21586   5.40275638E+001
      6.21658   5.48181770E+001
      6.21730   5.56187342E+001
      6.21802   5.64293343E+001
      6.21874   5.72500765E+001
      6.21945   5.80810605E+001
      6.22017   5.89223869E+001
      6.22089   5.97741566E+001
      6.22161   6.06364712E+001
      6.22233   6.15094328E+001
      6.22305   6.23931440E+001
      6.22376   6.32877082E+001
      6.22448   6.41932292E+001
      6.22520   6.51098113E+001
      6.22592   6.60375594E+001
      6.22664   6.69765789E+001
      6.22736   6.79269760E+001
      6.22808   6.88888570E+001
      6.22879   6.98623292E+001
      6.22951   7.08475001E+001
      6.23023   7.18444778E+001
      6.23095   7.28533710E+001
      6.23167   7.38742888E+001
      6.23239   7.49073411E+001
      6.23310   7.59526378E+001
      6.23382   7.70102898E+001
      6.23454   7.80804083E+001
      6.23526   7.91631049E+001
      6.23598   8.02584918E+001
      6.23670   8.13666818E+001
      6.23741   8.24877878E+001
      6.23813   8.36219237E+001
      6.23885   8.47692033E+001
      6.23957   8.59297413E+001
      6.24029   8.71036527E+001
      6.24101   8.82910530E+001
      6.24173   8.94920579E+001
      6.24244   9.07067839E+001
      6.24316   9.19353477E+001
      6.24388   9.31778664E+001
      6.24460   9.44344577E+001
      6.24532   9.57052396E+001
      6.24604   9.69903304E+001
      6.24675   9.82898491E+001
      6.24747   9.96039146E+001
      6.24819   1.00932647E+002
      6.24891   1.02276165E+002
      6.24963   1.03634591E+002
      6.25035   1.05008043E+002
      6.25107   1.06396645E+002
      6.25178   1.07800516E+002
      6.25250   1.09219778E+002
      6.25322   1.10654554E+002
      6.25394   1.12104966E+002
      6.25466   1.13571136E+002
      6.25538   1.15053188E+002
      6.25609   1.16551244E+002
      6.25681   1.18065428E+002
      6.25753   1.19595864E+002
      6.25825   1.21142676E+002
      6.25897   1.22705988E+002
      6.25969   1.24285924E+002
      6.26040   1.25882610E+002
      6.26112   1.27496171E+002
      6.26184   1.29126731E+002
      6.26256   1.30774416E+002
      6.26328   1.32439351E+002
      6.26400   1.34121663E+002
      6.26472   1.35821477E+002
      6.26543   1.37538919E+002
      6.26615   1.39274115E+002
      6.26687   1.41027193E+002
      6.26759   1.42798277E+002
      6.26831   1.44587496E+002
      6.26903   1.46394975E+002
      6.26974   1.48220842E+002
      6.27046   1.50065223E+002
      6.27118   1.51928246E+002
      6.27190   1.53810036E+002
      6.27262   1.55710722E+002
      6.27334   1.57630430E+002
      6.27406   1.59569288E+002
      6.27477   1.61527422E+002
      6.27549   1.63504960E+002
      6.27621   1.65502028E+002
      6.27693   1.67518754E+002
      6.27765   1.69555265E+002
      6.27837   1.71611687E+002
      6.27908   1.73688148E+002
      6.27980   1.75784774E+002
      6.28052   1.77901691E+002
      6.28124   1.80039027E+002
      6.28196   1.82196907E+002
      6.28268   1.84375459E+002
      6.28339   1.86574807E+002
      6.28411   1.88795078E+002
      6.28483   1.91036399E+002
      6.28555   1.93298893E+002
      6.28627   1.95582687E+002
      6.28699   1.97887905E+002
      6.28771   2.00214673E+002
      6.28842   2.02563114E+002
      6.28914   2.04933354E+002
      6.28986   2.07325517E+002
      6.29058   2.09739725E+002
      6.29130   2.12176102E+002
      6.29202   2.14634772E+002
      6.29273   2.17115857E+002
      6.29345   2.19619479E+002
      6.29417   2.22145760E+002
      6.29489   2.24694822E+002
      6.29561   2.27266785E+002
      6.29633   2.29861771E+002
      6.29705   2.32479899E+002
      6.29776   2.35121289E+002
      6.29848   2.37786061E+002
      6.29920   2.40474332E+002
      6.29992   2.43186222E+002
      6.30064   2.45921848E+002
      6.30136   2.48681327E+002
      6.30207   2.51464775E+002
      6.30279   2.54272309E+002
      6.30351   2.57104043E+002
      6.30423   2.59960092E+002
      6.30495   2.62840571E+002
      6.30567   2.65745592E+002
      6.30638   2.68675269E+002
      6.30710   2.71629713E+002
      6.30782   2.74609036E+002
      6.30854   2.77613347E+002
      6.30926   2.80642758E+002
      6.30998   2.83697376E+002
      6.31070   2.86777310E+002
      6.31141   2.89882668E+002
      6.31213   2.93013555E+002
      6.31285   2.96170078E+002
      6.31357   2.99352341E+002
      6.31429   3.02560449E+002
      6.31501   3.05794504E+002
      6.31572   3.09054609E+002
      6.31644   3.12340864E+002
      6.31716   3.15653370E+002
      6.31788   3.18992226E+002
      6.31860   3.22357531E+002
      6.31932   3.25749381E+002
      6.32004   3.29167872E+002
      6.32075   3.32613100E+002
      6.32147   3.36085159E+002
      6.32219   3.39584142E+002
      6.32291   3.43110140E+002
      6.32363   3.46663244E+002
      6.32435   3.50243544E+002
      6.32506   3.53851127E+002
      6.32578   3.57486082E+002
      6.32650   3.61148493E+002
      6.32722   3.64838446E+002
      6.32794   3.68556024E+002
      6.32866   3.72301309E+002
      6.32937   3.76074382E+002
      6.33009   3.79875323E+002
      6.33081   3.83704209E+002
      6.33153   3.87561117E+002
      6.33225   3.91446123E+002
      6.33297   3.95359301E+002
      6.33369   3.99300724E+002
      6.33440   4.03270462E+002
      6.33512   4.07268585E+002
      6.33584   4.11295162E+002
      6.33656   4.15350260E+002
      6.33728   4.19433943E+002
      6.33800   4.23546275E+002
      6.33871   4.27687318E+002
      6.33943   4.31857134E+002
      6.34015   4.36055780E+002
      6.34087   4.40283315E+002
      6.34159   4.44539793E+002
      6.34231   4.48825269E+002
      6.34303   4.53139796E+002
      6.34374   4.57483423E+002
      6.34446   4.61856200E+002
      6.34518   4.66258175E+002
      6.34590   4.70689391E+002
      6.34662   4.75149894E+002
      6.34734   4.79639725E+002
      6.34805   4.84158924E+002
      6.34877   4.88707529E+002
      6.34949   4.93285576E+002
      6.35021   4.97893101E+002
      6.35093   5.02530135E+002
      6.35165   5.07196710E+002
      6.35236   5.11892853E+002
      6.35308   5.16618593E+002
      6.35380   5.21373953E+002
      6.35452   5.26158956E+002
      6.35524   5.30973624E+002
      6.35596   5.35817975E+002
      6.35668   5.40692025E+002
      6.35739   5.45595790E+002
      6.35811   5.50529282E+002
      6.35883   5.55492512E+002
      6.35955   5.60485487E+002
      6.36027   5.65508214E+002
      6.36099   5.70560697E+002
      6.36170   5.75642938E+002
      6.36242   5.80754937E+002
      6.36314   5.85896691E+002
      6.36386   5.91068195E+002
      6.36458   5.96269443E+002
      6.36530   6.01500424E+002
      6.36602   6.06761129E+002
      6.36673   6.12051541E+002
      6.36745   6.17371647E+002
      6.36817   6.22721426E+002
      6.36889   6.28100858E+002
      6.36961   6.33509920E+002
      6.37033   6.38948586E+002
      6.37104   6.44416829E+002
      6.37176   6.49914617E+002
      6.37248   6.55441919E+002
      6.37320   6.60998698E+002
      6.37392   6.66584917E+002
      6.37464   6.72200535E+002
      6.37535   6.77845511E+002
      6.37607   6.83519798E+002
      6.37679   6.89223349E+002
      6.37751   6.94956113E+002
      6.37823   7.00718038E+002
      6.37895   7.06509068E+002
      6.37967   7.12329145E+002
      6.38038   7.18178209E+002
      6.38110   7.24056196E+002
      6.38182   7.29963041E+002
      6.38254   7.35898674E+002
      6.38326   7.41863026E+002
      6.38398   7.47856021E+002
      6.38469   7.53877583E+002
      6.38541   7.59927634E+002
      6.38613   7.66006091E+002
      6.38685   7.72112870E+002
      6.38757   7.78247883E+002
      6.38829   7.84411041E+002
      6.38900   7.90602250E+002
      6.38972   7.96821415E+002
      6.39044   8.03068438E+002
      6.39116   8.09343217E+002
      6.39188   8.15645648E+002
      6.39260   8.21975625E+002
      6.39332   8.28333039E+002
      6.39403   8.34717776E+002
      6.39475   8.41129722E+002
      6.39547   8.47568758E+002
      6.39619   8.54034764E+002
      6.39691   8.60527616E+002
      6.39763   8.67047187E+002
      6.39834   8.73593347E+002
      6.39906   8.80165965E+002
      6.39978   8.86764905E+002
      6.40050   8.93390029E+002
      6.40122   9.00041196E+002
      6.40194   9.06718261E+002
      6.40266   9.13421078E+002
      6.40337   9.20149497E+002
      6.40409   9.26903365E+002
      6.40481   9.33682527E+002
      6.40553   9.40486823E+002
      6.40625   9.47316092E+002
      6.40697   9.54170170E+002
      6.40768   9.61048889E+002
      6.40840   9.67952078E+002
      6.40912   9.74879565E+002
      6.40984   9.81831171E+002
      6.41056   9.88806720E+002
      6.41128   9.95806026E+002
      6.41199   1.00282891E+003
      6.41271   1.00987517E+003
      6.41343   1.01694463E+003
      6.41415   1.02403709E+003
      6.41487   1.03115235E+003
      6.41559   1.03829021E+003
      6.41631   1.04545048E+003
      6.41702   1.05263293E+003
      6.41774   1.05983737E+003
      6.41846   1.06706358E+003
      6.41918   1.07431134E+003
      6.41990   1.08158044E+003
      6.42062   1.08887066E+003
      6.42133   1.09618177E+003
      6.42205   1.10351354E+003
      6.42277   1.11086576E+003
      6.42349   1.11823817E+003
      6.42421   1.12563055E+003
      6.42493   1.13304265E+003
      6.42565   1.14047424E+003
      6.42636   1.14792507E+003
      6.42708   1.15539489E+003
      6.42780   1.16288346E+003
      6.42852   1.17039051E+003
      6.42924   1.17791579E+003
      6.42996   1.18545904E+003
      6.43067   1.19302001E+003
      6.43139   1.20059841E+003
      6.43211   1.20819399E+003
      6.43283   1.21580647E+003
      6.43355   1.22343559E+003
      6.43427   1.23108105E+003
      6.43498   1.23874259E+003
      6.43570   1.24641992E+003
      6.43642   1.25411275E+003
      6.43714   1.26182079E+003
      6.43786   1.26954376E+003
      6.43858   1.27728136E+003
      6.43930   1.28503329E+003
      6.44001   1.29279925E+003
      6.44073   1.30057895E+003
      6.44145   1.30837207E+003
      6.44217   1.31617830E+003
      6.44289   1.32399735E+003
      6.44361   1.33182888E+003
      6.44432   1.33967259E+003
      6.44504   1.34752816E+003
      6.44576   1.35539526E+003
      6.44648   1.36327357E+003
      6.44720   1.37116276E+003
      6.44792   1.37906251E+003
      6.44864   1.38697248E+003
      6.44935   1.39489234E+003
      6.45007   1.40282174E+003
      6.45079   1.41076035E+003
      6.45151   1.41870783E+003
      6.45223   1.42666382E+003
      6.45295   1.43462799E+003
      6.45366   1.44259998E+003
      6.45438   1.45057944E+003
      6.45510   1.45856601E+003
      6.45582   1.46655933E+003
      6.45654   1.47455906E+003
      6.45726   1.48256481E+003
      6.45797   1.49057623E+003
      6.45869   1.49859295E+003
      6.45941   1.50661460E+003
      6.46013   1.51464081E+003
      6.46085   1.52267120E+003
      6.46157   1.53070540E+003
      6.46229   1.53874302E+003
      6.46300   1.54678369E+003
      6.46372   1.55482703E+003
      6.46444   1.56287264E+003
      6.46516   1.57092014E+003
      6.46588   1.57896914E+003
      6.46660   1.58701925E+003
      6.46731   1.59507007E+003
      6.46803   1.60312121E+003
      6.46875   1.61117227E+003
      6.46947   1.61922284E+003
      6.47019   1.62727254E+003
      6.47091   1.63532094E+003
      6.47163   1.64336766E+003
      6.47234   1.65141227E+003
      6.47306   1.65945437E+003
      6.47378   1.66749354E+003
      6.47450   1.67552938E+003
      6.47522   1.68356147E+003
      6.47594   1.69158939E+003
      6.47665   1.69961272E+003
      6.47737   1.70763105E+003
      6.47809   1.71564394E+003
      6.47881   1.72365099E+003
      6.47953   1.73165175E+003
      6.48025   1.73964581E+003
      6.48096   1.74763274E+003
      6.48168   1.75561210E+003
      6.48240   1.76358347E+003
      6.48312   1.77154641E+003
      6.48384   1.77950049E+003
      6.48456   1.78744527E+003
      6.48528   1.79538032E+003
      6.48599   1.80330520E+003
      6.48671   1.81121947E+003
      6.48743   1.81912269E+003
      6.48815   1.82701442E+003
      6.48887   1.83489421E+003
      6.48959   1.84276162E+003
      6.49030   1.85061621E+003
      6.49102   1.85845753E+003
      6.49174   1.86628514E+003
      6.49246   1.87409858E+003
      6.49318   1.88189740E+003
      6.49390   1.88968117E+003
      6.49462   1.89744942E+003
      6.49533   1.90520170E+003
      6.49605   1.91293757E+003
      6.49677   1.92065658E+003
      6.49749   1.92835825E+003
      6.49821   1.93604216E+003
      6.49893   1.94370783E+003
      6.49964   1.95135481E+003
      6.50036   1.95898266E+003
      6.50108   1.96659090E+003
      6.50180   1.97417909E+003
      6.50252   1.98174677E+003
      6.50324   1.98929348E+003
      6.50395   1.99681876E+003
      6.50467   2.00432216E+003
      6.50539   2.01180322E+003
      6.50611   2.01926147E+003
      6.50683   2.02669647E+003
      6.50755   2.03410774E+003
      6.50827   2.04149484E+003
      6.50898   2.04885731E+003
      6.50970   2.05619468E+003
      6.51042   2.06350650E+003
      6.51114   2.07079231E+003
      6.51186   2.07805166E+003
      6.51258   2.08528407E+003
      6.51329   2.09248910E+003
      6.51401   2.09966629E+003
      6.51473   2.10681519E+003
      6.51545   2.11393532E+003
      6.51617   2.12102625E+003
      6.51689   2.12808751E+003
      6.51761   2.13511865E+003
      6.51832   2.14211921E+003
      6.51904   2.14908874E+003
      6.51976   2.15602679E+003
      6.52048   2.16293290E+003
      6.52120   2.16980663E+003
      6.52192   2.17664751E+003
      6.52263   2.18345511E+003
      6.52335   2.19022897E+003
      6.52407   2.19696864E+003
      6.52479   2.20367368E+003
      6.52551   2.21034364E+003
      6.52623   2.21697808E+003
      6.52694   2.22357655E+003
      6.52766   2.23013861E+003
      6.52838   2.23666381E+003
      6.52910   2.24315172E+003
      6.52982   2.24960190E+003
      6.53054   2.25601391E+003
      6.53126   2.26238732E+003
      6.53197   2.26872168E+003
      6.53269   2.27501658E+003
      6.53341   2.28127156E+003
      6.53413   2.28748622E+003
      6.53485   2.29366011E+003
      6.53557   2.29979281E+003
      6.53628   2.30588390E+003
      6.53700   2.31193295E+003
      6.53772   2.31793955E+003
      6.53844   2.32390326E+003
      6.53916   2.32982368E+003
      6.53988   2.33570040E+003
      6.54060   2.34153299E+003
      6.54131   2.34732104E+003
      6.54203   2.35306415E+003
      6.54275   2.35876192E+003
      6.54347   2.36441393E+003
      6.54419   2.37001978E+003
      6.54491   2.37557908E+003
      6.54562   2.38109142E+003
      6.54634   2.38655641E+003
      6.54706   2.39197366E+003
      6.54778   2.39734278E+003
      6.54850   2.40266338E+003
      6.54922   2.40793508E+003
      6.54993   2.41315748E+003
      6.55065   2.41833022E+003
      6.55137   2.42345292E+003
      6.55209   2.42852520E+003
      6.55281   2.43354670E+003
      6.55353   2.43851703E+003
      6.55425   2.44343584E+003
      6.55496   2.44830277E+003
      6.55568   2.45311745E+003
      6.55640   2.45787953E+003
      6.55712   2.46258866E+003
      6.55784   2.46724448E+003
      6.55856   2.47184666E+003
      6.55927   2.47639483E+003
      6.55999   2.48088868E+003
      6.56071   2.48532785E+003
      6.56143   2.48971201E+003
      6.56215   2.49404084E+003
      6.56287   2.49831400E+003
      6.56359   2.50253118E+003
      6.56430   2.50669205E+003
      6.56502   2.51079631E+003
      6.56574   2.51484362E+003
      6.56646   2.51883369E+003
      6.56718   2.52276622E+003
      6.56790   2.52664089E+003
      6.56861   2.53045742E+003
      6.56933   2.53421550E+003
      6.57005   2.53791485E+003
      6.57077   2.54155519E+003
      6.57149   2.54513623E+003
      6.57221   2.54865769E+003
      6.57292   2.55211930E+003
      6.57364   2.55552078E+003
      6.57436   2.55886188E+003
      6.57508   2.56214234E+003
      6.57580   2.56536188E+003
      6.57652   2.56852027E+003
      6.57724   2.57161725E+003
      6.57795   2.57465257E+003
      6.57867   2.57762601E+003
      6.57939   2.58053731E+003
      6.58011   2.58338625E+003
      6.58083   2.58617261E+003
      6.58155   2.58889616E+003
      6.58226   2.59155667E+003
      6.58298   2.59415395E+003
      6.58370   2.59668777E+003
      6.58442   2.59915794E+003
      6.58514   2.60156426E+003
      6.58586   2.60390652E+003
      6.58658   2.60618454E+003
      6.58729   2.60839814E+003
      6.58801   2.61054713E+003
      6.58873   2.61263134E+003
      6.58945   2.61465059E+003
      6.59017   2.61660472E+003
      6.59089   2.61849357E+003
      6.59160   2.62031698E+003
      6.59232   2.62207481E+003
      6.59304   2.62376689E+003
      6.59376   2.62539310E+003
      6.59448   2.62695329E+003
      6.59520   2.62844734E+003
      6.59591   2.62987511E+003
      6.59663   2.63123649E+003
      6.59735   2.63253136E+003
      6.59807   2.63375960E+003
      6.59879   2.63492112E+003
      6.59951   2.63601581E+003
      6.60023   2.63704358E+003
      6.60094   2.63800433E+003
      6.60166   2.63889799E+003
      6.60238   2.63972447E+003
      6.60310   2.64048369E+003
      6.60382   2.64117559E+003
      6.60454   2.64180011E+003
      6.60525   2.64235718E+003
      6.60597   2.64284676E+003
      6.60669   2.64326879E+003
      6.60741   2.64362324E+003
      6.60813   2.64391007E+003
      6.60885   2.64412924E+003
      6.60957   2.64428073E+003
      6.61028   2.64436452E+003
      6.61100   2.64438060E+003
      6.61172   2.64432895E+003
      6.61244   2.64420958E+003
      6.61316   2.64402248E+003
      6.61388   2.64376766E+003
      6.61459   2.64344514E+003
      6.61531   2.64305493E+003
      6.61603   2.64259706E+003
      6.61675   2.64207156E+003
      6.61747   2.64147846E+003
      6.61819   2.64081781E+003
      6.61890   2.64008964E+003
      6.61962   2.63929402E+003
      6.62034   2.63843100E+003
      6.62106   2.63750065E+003
      6.62178   2.63650303E+003
      6.62250   2.63543821E+003
      6.62322   2.63430629E+003
      6.62393   2.63310735E+003
      6.62465   2.63184147E+003
      6.62537   2.63050875E+003
      6.62609   2.62910931E+003
      6.62681   2.62764324E+003
      6.62753   2.62611066E+003
      6.62824   2.62451170E+003
      6.62896   2.62284648E+003
      6.62968   2.62111512E+003
      6.63040   2.61931778E+003
      6.63112   2.61745458E+003
      6.63184   2.61552568E+003
      6.63256   2.61353124E+003
      6.63327   2.61147142E+003
      6.63399   2.60934637E+003
      6.63471   2.60715627E+003
      6.63543   2.60490131E+003
      6.63615   2.60258165E+003
      6.63687   2.60019750E+003
      6.63758   2.59774904E+003
      6.63830   2.59523647E+003
      6.63902   2.59266000E+003
      6.63974   2.59001985E+003
      6.64046   2.58731622E+003
      6.64118   2.58454934E+003
      6.64189   2.58171944E+003
      6.64261   2.57882675E+003
      6.64333   2.57587151E+003
      6.64405   2.57285396E+003
      6.64477   2.56977436E+003
      6.64549   2.56663296E+003
      6.64621   2.56343002E+003
      6.64692   2.56016581E+003
      6.64764   2.55684060E+003
      6.64836   2.55345467E+003
      6.64908   2.55000830E+003
      6.64980   2.54650178E+003
      6.65052   2.54293541E+003
      6.65123   2.53930948E+003
      6.65195   2.53562430E+003
      6.65267   2.53188018E+003
      6.65339   2.52807744E+003
      6.65411   2.52421639E+003
      6.65483   2.52029737E+003
      6.65555   2.51632070E+003
      6.65626   2.51228673E+003
      6.65698   2.50819579E+003
      6.65770   2.50404823E+003
      6.65842   2.49984440E+003
      6.65914   2.49558467E+003
      6.65986   2.49126940E+003
      6.66057   2.48689895E+003
      6.66129   2.48247370E+003
      6.66201   2.47799403E+003
      6.66273   2.47346032E+003
      6.66345   2.46887296E+003
      6.66417   2.46423235E+003
      6.66488   2.45953888E+003
      6.66560   2.45479295E+003
      6.66632   2.44999499E+003
      6.66704   2.44514539E+003
      6.66776   2.44024458E+003
      6.66848   2.43529299E+003
      6.66920   2.43029103E+003
      6.66991   2.42523916E+003
      6.67063   2.42013779E+003
      6.67135   2.41498739E+003
      6.67207   2.40978839E+003
      6.67279   2.40454124E+003
      6.67351   2.39924642E+003
      6.67422   2.39390436E+003
      6.67494   2.38851556E+003
      6.67566   2.38308046E+003
      6.67638   2.37759956E+003
      6.67710   2.37207333E+003
      6.67782   2.36650225E+003
      6.67854   2.36088682E+003
      6.67925   2.35522753E+003
      6.67997   2.34952488E+003
      6.68069   2.34377937E+003
      6.68141   2.33799151E+003
      6.68213   2.33216180E+003
      6.68285   2.32629077E+003
      6.68356   2.32037893E+003
      6.68428   2.31442681E+003
      6.68500   2.30843494E+003
      6.68572   2.30240385E+003
      6.68644   2.29633408E+003
      6.68716   2.29022616E+003
      6.68787   2.28408065E+003
      6.68859   2.27789808E+003
      6.68931   2.27167902E+003
      6.69003   2.26542403E+003
      6.69075   2.25913365E+003
      6.69147   2.25280846E+003
      6.69219   2.24644902E+003
      6.69290   2.24005591E+003
      6.69362   2.23362971E+003
      6.69434   2.22717098E+003
      6.69506   2.22068033E+003
      6.69578   2.21415833E+003
      6.69650   2.20760557E+003
      6.69721   2.20102265E+003
      6.69793   2.19441017E+003
      6.69865   2.18776873E+003
      6.69937   2.18109893E+003
      6.70009   2.17440139E+003
      6.70081   2.16767671E+003
      6.70153   2.16092551E+003
      6.70224   2.15414841E+003
      6.70296   2.14734603E+003
      6.70368   2.14051899E+003
      6.70440   2.13366793E+003
      6.70512   2.12679348E+003
      6.70584   2.11989627E+003
      6.70655   2.11297694E+003
      6.70727   2.10603613E+003
      6.70799   2.09907449E+003
      6.70871   2.09209266E+003
      6.70943   2.08509129E+003
      6.71015   2.07807103E+003
      6.71086   2.07103255E+003
      6.71158   2.06397650E+003
      6.71230   2.05690355E+003
      6.71302   2.04981435E+003
      6.71374   2.04270958E+003
      6.71446   2.03558990E+003
      6.71518   2.02845599E+003
      6.71589   2.02130853E+003
      6.71661   2.01414818E+003
      6.71733   2.00697564E+003
      6.71805   1.99979159E+003
      6.71877   1.99259671E+003
      6.71949   1.98539169E+003
      6.72020   1.97817723E+003
      6.72092   1.97095400E+003
      6.72164   1.96372272E+003
      6.72236   1.95648408E+003
      6.72308   1.94923878E+003
      6.72380   1.94198752E+003
      6.72451   1.93473101E+003
      6.72523   1.92746995E+003
      6.72595   1.92020505E+003
      6.72667   1.91293703E+003
      6.72739   1.90566660E+003
      6.72811   1.89839447E+003
      6.72883   1.89112136E+003
      6.72954   1.88384800E+003
      6.73026   1.87657510E+003
      6.73098   1.86930338E+003
      6.73170   1.86203358E+003
      6.73242   1.85476642E+003
      6.73314   1.84750263E+003
      6.73385   1.84024294E+003
      6.73457   1.83298808E+003
      6.73529   1.82573880E+003
      6.73601   1.81849581E+003
      6.73673   1.81125988E+003
      6.73745   1.80403172E+003
      6.73817   1.79681209E+003
      6.73888   1.78960173E+003
      6.73960   1.78240139E+003
      6.74032   1.77521180E+003
      6.74104   1.76803372E+003
      6.74176   1.76086790E+003
      6.74248   1.75371508E+003
      6.74319   1.74657603E+003
      6.74391   1.73945149E+003
      6.74463   1.73234222E+003
      6.74535   1.72524897E+003
      6.74607   1.71817251E+003
      6.74679   1.71111359E+003
      6.74750   1.70407297E+003
      6.74822   1.69705142E+003
      6.74894   1.69004969E+003
      6.74966   1.68306856E+003
      6.75038   1.67610878E+003
      6.75110   1.66917113E+003
      6.75182   1.66225637E+003
      6.75253   1.65536527E+003
      6.75325   1.64849860E+003
      6.75397   1.64165713E+003
      6.75469   1.63484163E+003
      6.75541   1.62805288E+003
      6.75613   1.62129164E+003
      6.75684   1.61455870E+003
      6.75756   1.60785483E+003
      6.75828   1.60118080E+003
      6.75900   1.59453740E+003
      6.75972   1.58792541E+003
      6.76044   1.58134559E+003
      6.76116   1.57479873E+003
      6.76187   1.56828562E+003
      6.76259   1.56180703E+003
      6.76331   1.55536375E+003
      6.76403   1.54895656E+003
      6.76475   1.54258624E+003
      6.76547   1.53625358E+003
      6.76618   1.52995937E+003
      6.76690   1.52370438E+003
      6.76762   1.51748941E+003
      6.76834   1.51131524E+003
      6.76906   1.50518267E+003
      6.76978   1.49909247E+003
      6.77049   1.49304545E+003
      6.77121   1.48704238E+003
      6.77193   1.48108406E+003
      6.77265   1.47517127E+003
      6.77337   1.46930482E+003
      6.77409   1.46348549E+003
      6.77481   1.45771407E+003
      6.77552   1.45199136E+003
      6.77624   1.44631814E+003
      6.77696   1.44069521E+003
      6.77768   1.43512337E+003
      6.77840   1.42960341E+003
      6.77912   1.42413612E+003
      6.77983   1.41872230E+003
      6.78055   1.41336274E+003
      6.78127   1.40805823E+003
      6.78199   1.40280958E+003
      6.78271   1.39761757E+003
      6.78343   1.39248301E+003
      6.78415   1.38740669E+003
      6.78486   1.38238940E+003
      6.78558   1.37743195E+003
      6.78630   1.37253512E+003
      6.78702   1.36769972E+003
      6.78774   1.36292655E+003
      6.78846   1.35821639E+003
      6.78917   1.35357005E+003
      6.78989   1.34898832E+003
      6.79061   1.34447200E+003
      6.79133   1.34002190E+003
      6.79205   1.33563879E+003
      6.79277   1.33132349E+003
      6.79348   1.32707679E+003
      6.79420   1.32289949E+003
      6.79492   1.31879238E+003
      6.79564   1.31475626E+003
      6.79636   1.31079193E+003
      6.79708   1.30690019E+003
      6.79780   1.30308183E+003
      6.79851   1.29933764E+003
      6.79923   1.29566844E+003
      6.79995   1.29207500E+003
      6.80067   1.28855813E+003
      6.80139   1.28511863E+003
      6.80211   1.28175729E+003
      6.80282   1.27847490E+003
      6.80354   1.27527227E+003
      6.80426   1.27215017E+003
      6.80498   1.26910942E+003
      6.80570   1.26615081E+003
      6.80642   1.26327512E+003
      6.80714   1.26048315E+003
      6.80785   1.25777570E+003
      6.80857   1.25515356E+003
      6.80929   1.25261752E+003
      6.81001   1.25016836E+003
      6.81073   1.24780690E+003
      6.81145   1.24553391E+003
      6.81216   1.24335018E+003
      6.81288   1.24125651E+003
      6.81360   1.23925368E+003
      6.81432   1.23734248E+003
      6.81504   1.23552371E+003
      6.81576   1.23379814E+003
      6.81647   1.23216657E+003
      6.81719   1.23062978E+003
      6.81791   1.22918855E+003
      6.81863   1.22784368E+003
      6.81935   1.22659594E+003
      6.82007   1.22544611E+003
      6.82079   1.22439499E+003
      6.82150   1.22344335E+003
      6.82222   1.22259197E+003
      6.82294   1.22184163E+003
      6.82366   1.22119311E+003
      6.82438   1.22064718E+003
      6.82510   1.22020463E+003
      6.82581   1.21986623E+003
      6.82653   1.21963275E+003
      6.82725   1.21950496E+003
      6.82797   1.21948365E+003
      6.82869   1.21956957E+003
      6.82941   1.21976351E+003
      6.83013   1.22006622E+003
      6.83084   1.22047847E+003
      6.83156   1.22100104E+003
      6.83228   1.22163468E+003
      6.83300   1.22238016E+003
      6.83372   1.22323824E+003
      6.83444   1.22420968E+003
      6.83515   1.22529524E+003
      6.83587   1.22649567E+003
      6.83659   1.22781173E+003
      6.83731   1.22924418E+003
      6.83803   1.23079377E+003
      6.83875   1.23246124E+003
      6.83946   1.23424735E+003
      6.84018   1.23615285E+003
      6.84090   1.23817847E+003
      6.84162   1.24032496E+003
      6.84234   1.24259306E+003
      6.84306   1.24498352E+003
      6.84378   1.24749706E+003
      6.84449   1.25013443E+003
      6.84521   1.25289635E+003
      6.84593   1.25578356E+003
      6.84665   1.25879679E+003
      6.84737   1.26193675E+003
      6.84809   1.26520418E+003
      6.84880   1.26859980E+003
      6.84952   1.27212432E+003
      6.85024   1.27577845E+003
      6.85096   1.27956293E+003
      6.85168   1.28347844E+003
      6.85240   1.28752571E+003
      6.85312   1.29170544E+003
      6.85383   1.29601833E+003
      6.85455   1.30046508E+003
      6.85527   1.30504638E+003
      6.85599   1.30976294E+003
      6.85671   1.31461544E+003
      6.85743   1.31960456E+003
      6.85814   1.32473100E+003
      6.85886   1.32999543E+003
      6.85958   1.33539853E+003
      6.86030   1.34094098E+003
      6.86102   1.34662345E+003
      6.86174   1.35244659E+003
      6.86245   1.35841109E+003
      6.86317   1.36451759E+003
      6.86389   1.37076675E+003
      6.86461   1.37715922E+003
      6.86533   1.38369566E+003
      6.86605   1.39037670E+003
      6.86677   1.39720299E+003
      6.86748   1.40417517E+003
      6.86820   1.41129385E+003
      6.86892   1.41855968E+003
      6.86964   1.42597327E+003
      6.87036   1.43353524E+003
      6.87108   1.44124621E+003
      6.87179   1.44910678E+003
      6.87251   1.45711757E+003
      6.87323   1.46527916E+003
      6.87395   1.47359216E+003
      6.87467   1.48205715E+003
      6.87539   1.49067471E+003
      6.87611   1.49944544E+003
      6.87682   1.50836990E+003
      6.87754   1.51744866E+003
      6.87826   1.52668228E+003
      6.87898   1.53607132E+003
      6.87970   1.54561634E+003
      6.88042   1.55531788E+003
      6.88113   1.56517648E+003
      6.88185   1.57519268E+003
      6.88257   1.58536700E+003
      6.88329   1.59569997E+003
      6.88401   1.60619211E+003
      6.88473   1.61684391E+003
      6.88544   1.62765590E+003
      6.88616   1.63862856E+003
      6.88688   1.64976239E+003
      6.88760   1.66105787E+003
      6.88832   1.67251547E+003
      6.88904   1.68413567E+003
      6.88976   1.69591894E+003
      6.89047   1.70786571E+003
      6.89119   1.71997646E+003
      6.89191   1.73225161E+003
      6.89263   1.74469161E+003
      6.89335   1.75729687E+003
      6.89407   1.77006782E+003
      6.89478   1.78300487E+003
      6.89550   1.79610842E+003
      6.89622   1.80937886E+003
      6.89694   1.82281660E+003
      6.89766   1.83642199E+003
      6.89838   1.85019543E+003
      6.89910   1.86413725E+003
      6.89981   1.87824784E+003
      6.90053   1.89252751E+003
      6.90125   1.90697662E+003
      6.90197   1.92159550E+003
      6.90269   1.93638445E+003
      6.90341   1.95134379E+003
      6.90412   1.96647382E+003
      6.90484   1.98177484E+003
      6.90556   1.99724712E+003
      6.90628   2.01289093E+003
      6.90700   2.02870654E+003
      6.90772   2.04469421E+003
      6.90843   2.06085416E+003
      6.90915   2.07718665E+003
      6.90987   2.09369189E+003
      6.91059   2.11037008E+003
      6.91131   2.12722145E+003
      6.91203   2.14424617E+003
      6.91275   2.16144443E+003
      6.91346   2.17881640E+003
      6.91418   2.19636224E+003
      6.91490   2.21408209E+003
      6.91562   2.23197610E+003
      6.91634   2.25004440E+003
      6.91706   2.26828709E+003
      6.91777   2.28670428E+003
      6.91849   2.30529607E+003
      6.91921   2.32406254E+003
      6.91993   2.34300375E+003
      6.92065   2.36211976E+003
      6.92137   2.38141062E+003
      6.92209   2.40087636E+003
      6.92280   2.42051700E+003
      6.92352   2.44033255E+003
      6.92424   2.46032301E+003
      6.92496   2.48048836E+003
      6.92568   2.50082858E+003
      6.92640   2.52134361E+003
      6.92711   2.54203341E+003
      6.92783   2.56289791E+003
      6.92855   2.58393703E+003
      6.92927   2.60515068E+003
      6.92999   2.62653874E+003
      6.93071   2.64810110E+003
      6.93142   2.66983762E+003
      6.93214   2.69174816E+003
      6.93286   2.71383255E+003
      6.93358   2.73609063E+003
      6.93430   2.75852219E+003
      6.93502   2.78112704E+003
      6.93574   2.80390496E+003
      6.93645   2.82685572E+003
      6.93717   2.84997907E+003
      6.93789   2.87327476E+003
      6.93861   2.89674249E+003
      6.93933   2.92038200E+003
      6.94005   2.94419297E+003
      6.94076   2.96817508E+003
      6.94148   2.99232799E+003
      6.94220   3.01665137E+003
      6.94292   3.04114484E+003
      6.94364   3.06580803E+003
      6.94436   3.09064053E+003
      6.94508   3.11564194E+003
      6.94579   3.14081183E+003
      6.94651   3.16614976E+003
      6.94723   3.19165528E+003
      6.94795   3.21732790E+003
      6.94867   3.24316714E+003
      6.94939   3.26917250E+003
      6.95010   3.29534344E+003
      6.95082   3.32167945E+003
      6.95154   3.34817995E+003
      6.95226   3.37484439E+003
      6.95298   3.40167217E+003
      6.95370   3.42866270E+003
      6.95441   3.45581534E+003
      6.95513   3.48312948E+003
      6.95585   3.51060445E+003
      6.95657   3.53823959E+003
      6.95729   3.56603421E+003
      6.95801   3.59398760E+003
      6.95873   3.62209905E+003
      6.95944   3.65036782E+003
      6.96016   3.67879316E+003
      6.96088   3.70737430E+003
      6.96160   3.73611044E+003
      6.96232   3.76500079E+003
      6.96304   3.79404452E+003
      6.96375   3.82324079E+003
      6.96447   3.85258874E+003
      6.96519   3.88208751E+003
      6.96591   3.91173619E+003
      6.96663   3.94153388E+003
      6.96735   3.97147965E+003
      6.96807   4.00157257E+003
      6.96878   4.03181165E+003
      6.96950   4.06219594E+003
      6.97022   4.09272442E+003
      6.97094   4.12339609E+003
      6.97166   4.15420991E+003
      6.97238   4.18516483E+003
      6.97309   4.21625978E+003
      6.97381   4.24749369E+003
      6.97453   4.27886544E+003
      6.97525   4.31037391E+003
      6.97597   4.34201797E+003
      6.97669   4.37379646E+003
      6.97740   4.40570820E+003
      6.97812   4.43775200E+003
      6.97884   4.46992666E+003
      6.97956   4.50223093E+003
      6.98028   4.53466359E+003
      6.98100   4.56722336E+003
      6.98172   4.59990896E+003
      6.98243   4.63271909E+003
      6.98315   4.66565245E+003
      6.98387   4.69870768E+003
      6.98459   4.73188345E+003
      6.98531   4.76517837E+003
      6.98603   4.79859107E+003
      6.98674   4.83212014E+003
      6.98746   4.86576415E+003
      6.98818   4.89952166E+003
      6.98890   4.93339123E+003
      6.98962   4.96737136E+003
      6.99034   5.00146057E+003
      6.99106   5.03565735E+003
      6.99177   5.06996017E+003
      6.99249   5.10436749E+003
      6.99321   5.13887774E+003
      6.99393   5.17348935E+003
      6.99465   5.20820071E+003
      6.99537   5.24301022E+003
      6.99608   5.27791624E+003
      6.99680   5.31291713E+003
      6.99752   5.34801122E+003
      6.99824   5.38319683E+003
      6.99896   5.41847227E+003
      6.99968   5.45383581E+003
      7.00039   5.48928574E+003
      7.00111   5.52482030E+003
      7.00183   5.56043772E+003
      7.00255   5.59613624E+003
      7.00327   5.63191404E+003
      7.00399   5.66776933E+003
      7.00471   5.70370027E+003
      7.00542   5.73970501E+003
      7.00614   5.77578171E+003
      7.00686   5.81192847E+003
      7.00758   5.84814342E+003
      7.00830   5.88442465E+003
      7.00902   5.92077023E+003
      7.00973   5.95717822E+003
      7.01045   5.99364669E+003
      7.01117   6.03017365E+003
      7.01189   6.06675713E+003
      7.01261   6.10339513E+003
      7.01333   6.14008564E+003
      7.01405   6.17682664E+003
      7.01476   6.21361609E+003
      7.01548   6.25045193E+003
      7.01620   6.28733210E+003
      7.01692   6.32425452E+003
      7.01764   6.36121708E+003
      7.01836   6.39821769E+003
      7.01907   6.43525422E+003
      7.01979   6.47232454E+003
      7.02051   6.50942650E+003
      7.02123   6.54655794E+003
      7.02195   6.58371669E+003
      7.02267   6.62090057E+003
      7.02338   6.65810736E+003
      7.02410   6.69533488E+003
      7.02482   6.73258089E+003
      7.02554   6.76984316E+003
      7.02626   6.80711944E+003
      7.02698   6.84440749E+003
      7.02770   6.88170503E+003
      7.02841   6.91900979E+003
      7.02913   6.95631947E+003
      7.02985   6.99363179E+003
      7.03057   7.03094442E+003
      7.03129   7.06825505E+003
      7.03201   7.10556135E+003
      7.03272   7.14286098E+003
      7.03344   7.18015159E+003
      7.03416   7.21743083E+003
      7.03488   7.25469632E+003
      7.03560   7.29194569E+003
      7.03632   7.32917656E+003
      7.03704   7.36638654E+003
      7.03775   7.40357322E+003
      7.03847   7.44073419E+003
      7.03919   7.47786704E+003
      7.03991   7.51496935E+003
      7.04063   7.55203868E+003
      7.04135   7.58907259E+003
      7.04206   7.62606865E+003
      7.04278   7.66302440E+003
      7.04350   7.69993738E+003
      7.04422   7.73680514E+003
      7.04494   7.77362519E+003
      7.04566   7.81039507E+003
      7.04637   7.84711231E+003
      7.04709   7.88377440E+003
      7.04781   7.92037888E+003
      7.04853   7.95692323E+003
      7.04925   7.99340497E+003
      7.04997   8.02982160E+003
      7.05069   8.06617060E+003
      7.05140   8.10244948E+003
      7.05212   8.13865572E+003
      7.05284   8.17478680E+003
      7.05356   8.21084022E+003
      7.05428   8.24681344E+003
      7.05500   8.28270396E+003
      7.05571   8.31850924E+003
      7.05643   8.35422678E+003
      7.05715   8.38985403E+003
      7.05787   8.42538848E+003
      7.05859   8.46082759E+003
      7.05931   8.49616886E+003
      7.06002   8.53140973E+003
      7.06074   8.56654770E+003
      7.06146   8.60158024E+003
      7.06218   8.63650482E+003
      7.06290   8.67131891E+003
      7.06362   8.70602001E+003
      7.06434   8.74060558E+003
      7.06505   8.77507311E+003
      7.06577   8.80942008E+003
      7.06649   8.84364399E+003
      7.06721   8.87774232E+003
      7.06793   8.91171256E+003
      7.06865   8.94555222E+003
      7.06936   8.97925879E+003
      7.07008   9.01282977E+003
      7.07080   9.04626269E+003
      7.07152   9.07955505E+003
      7.07224   9.11270437E+003
      7.07296   9.14570817E+003
      7.07368   9.17856400E+003
      7.07439   9.21126937E+003
      7.07511   9.24382184E+003
      7.07583   9.27621896E+003
      7.07655   9.30845828E+003
      7.07727   9.34053736E+003
      7.07799   9.37245378E+003
      7.07870   9.40420511E+003
      7.07942   9.43578893E+003
      7.08014   9.46720286E+003
      7.08086   9.49844448E+003
      7.08158   9.52951140E+003
      7.08230   9.56040126E+003
      7.08301   9.59111169E+003
      7.08373   9.62164031E+003
      7.08445   9.65198479E+003
      7.08517   9.68214279E+003
      7.08589   9.71211197E+003
      7.08661   9.74189003E+003
      7.08733   9.77147465E+003
      7.08804   9.80086354E+003
      7.08876   9.83005443E+003
      7.08948   9.85904503E+003
      7.09020   9.88783310E+003
      7.09092   9.91641638E+003
      7.09164   9.94479266E+003
      7.09235   9.97295970E+003
      7.09307   1.00009153E+004
      7.09379   1.00286573E+004
      7.09451   1.00561835E+004
      7.09523   1.00834917E+004
      7.09595   1.01105798E+004
      7.09667   1.01374457E+004
      7.09738   1.01640872E+004
      7.09810   1.01905022E+004
      7.09882   1.02166887E+004
      7.09954   1.02426446E+004
      7.10026   1.02683678E+004
      7.10098   1.02938563E+004
      7.10169   1.03191081E+004
      7.10241   1.03441212E+004
      7.10313   1.03688935E+004
      7.10385   1.03934232E+004
      7.10457   1.04177083E+004
      7.10529   1.04417468E+004
      7.10600   1.04655368E+004
      7.10672   1.04890765E+004
      7.10744   1.05123639E+004
      7.10816   1.05353973E+004
      7.10888   1.05581747E+004
      7.10960   1.05806944E+004
      7.11032   1.06029545E+004
      7.11103   1.06249534E+004
      7.11175   1.06466891E+004
      7.11247   1.06681601E+004
      7.11319   1.06893646E+004
      7.11391   1.07103008E+004
      7.11463   1.07309672E+004
      7.11534   1.07513620E+004
      7.11606   1.07714837E+004
      7.11678   1.07913306E+004
      7.11750   1.08109012E+004
      7.11822   1.08301939E+004
      7.11894   1.08492071E+004
      7.11966   1.08679394E+004
      7.12037   1.08863893E+004
      7.12109   1.09045552E+004
      7.12181   1.09224357E+004
      7.12253   1.09400295E+004
      7.12325   1.09573351E+004
      7.12397   1.09743511E+004
      7.12468   1.09910762E+004
      7.12540   1.10075091E+004
      7.12612   1.10236485E+004
      7.12684   1.10394930E+004
      7.12756   1.10550415E+004
      7.12828   1.10702927E+004
      7.12899   1.10852454E+004
      7.12971   1.10998985E+004
      7.13043   1.11142507E+004
      7.13115   1.11283010E+004
      7.13187   1.11420483E+004
      7.13259   1.11554915E+004
      7.13331   1.11686295E+004
      7.13402   1.11814613E+004
      7.13474   1.11939860E+004
      7.13546   1.12062026E+004
      7.13618   1.12181100E+004
      7.13690   1.12297075E+004
      7.13762   1.12409942E+004
      7.13833   1.12519691E+004
      7.13905   1.12626314E+004
      7.13977   1.12729804E+004
      7.14049   1.12830152E+004
      7.14121   1.12927352E+004
      7.14193   1.13021395E+004
      7.14265   1.13112275E+004
      7.14336   1.13199986E+004
      7.14408   1.13284520E+004
      7.14480   1.13365872E+004
      7.14552   1.13444036E+004
      7.14624   1.13519007E+004
      7.14696   1.13590778E+004
      7.14767   1.13659346E+004
      7.14839   1.13724705E+004
      7.14911   1.13786851E+004
      7.14983   1.13845780E+004
      7.15055   1.13901488E+004
      7.15127   1.13953971E+004
      7.15198   1.14003227E+004
      7.15270   1.14049252E+004
      7.15342   1.14092043E+004
      7.15414   1.14131599E+004
      7.15486   1.14167916E+004
      7.15558   1.14200994E+004
      7.15630   1.14230830E+004
      7.15701   1.14257423E+004
      7.15773   1.14280773E+004
      7.15845   1.14300878E+004
      7.15917   1.14317738E+004
      7.15989   1.14331354E+004
      7.16061   1.14341724E+004
      7.16132   1.14348851E+004
      7.16204   1.14352734E+004
      7.16276   1.14353374E+004
      7.16348   1.14350773E+004
      7.16420   1.14344932E+004
      7.16492   1.14335854E+004
      7.16564   1.14323540E+004
      7.16635   1.14307994E+004
      7.16707   1.14289216E+004
      7.16779   1.14267212E+004
      7.16851   1.14241983E+004
      7.16923   1.14213534E+004
      7.16995   1.14181869E+004
      7.17066   1.14146991E+004
      7.17138   1.14108906E+004
      7.17210   1.14067617E+004
      7.17282   1.14023130E+004
      7.17354   1.13975450E+004
      7.17426   1.13924584E+004
      7.17497   1.13870535E+004
      7.17569   1.13813312E+004
      7.17641   1.13752919E+004
      7.17713   1.13689364E+004
      7.17785   1.13622654E+004
      7.17857   1.13552796E+004
      7.17929   1.13479798E+004
      7.18000   1.13403667E+004
      7.18072   1.13324411E+004
      7.18144   1.13242038E+004
      7.18216   1.13156558E+004
      7.18288   1.13067979E+004
      7.18360   1.12976311E+004
      7.18431   1.12881561E+004
      7.18503   1.12783741E+004
      7.18575   1.12682860E+004
      7.18647   1.12578929E+004
      7.18719   1.12471957E+004
      7.18791   1.12361955E+004
      7.18863   1.12248935E+004
      7.18934   1.12132908E+004
      7.19006   1.12013884E+004
      7.19078   1.11891876E+004
      7.19150   1.11766896E+004
      7.19222   1.11638956E+004
      7.19294   1.11508068E+004
      7.19365   1.11374245E+004
      7.19437   1.11237500E+004
      7.19509   1.11097846E+004
      7.19581   1.10955296E+004
      7.19653   1.10809865E+004
      7.19725   1.10661566E+004
      7.19796   1.10510413E+004
      7.19868   1.10356421E+004
      7.19940   1.10199604E+004
      7.20012   1.10039977E+004
      7.20084   1.09877555E+004
      7.20156   1.09712354E+004
      7.20228   1.09544388E+004
      7.20299   1.09373674E+004
      7.20371   1.09200227E+004
      7.20443   1.09024064E+004
      7.20515   1.08845201E+004
      7.20587   1.08663655E+004
      7.20659   1.08479442E+004
      7.20730   1.08292580E+004
      7.20802   1.08103085E+004
      7.20874   1.07910975E+004
      7.20946   1.07716268E+004
      7.21018   1.07518982E+004
      7.21090   1.07319134E+004
      7.21162   1.07116743E+004
      7.21233   1.06911826E+004
      7.21305   1.06704404E+004
      7.21377   1.06494494E+004
      7.21449   1.06282116E+004
      7.21521   1.06067288E+004
      7.21593   1.05850030E+004
      7.21664   1.05630362E+004
      7.21736   1.05408303E+004
      7.21808   1.05183873E+004
      7.21880   1.04957092E+004
      7.21952   1.04727980E+004
      7.22024   1.04496558E+004
      7.22095   1.04262846E+004
      7.22167   1.04026865E+004
      7.22239   1.03788636E+004
      7.22311   1.03548180E+004
      7.22383   1.03305517E+004
      7.22455   1.03060670E+004
      7.22527   1.02813660E+004
      7.22598   1.02564508E+004
      7.22670   1.02313236E+004
      7.22742   1.02059866E+004
      7.22814   1.01804420E+004
      7.22886   1.01546921E+004
      7.22958   1.01287390E+004
      7.23029   1.01025850E+004
      7.23101   1.00762324E+004
      7.23173   1.00496834E+004
      7.23245   1.00229403E+004
      7.23317   9.99600541E+003
      7.23389   9.96888106E+003
      7.23461   9.94156954E+003
      7.23532   9.91407319E+003
      7.23604   9.88639434E+003
      7.23676   9.85853535E+003
      7.23748   9.83049858E+003
      7.23820   9.80228641E+003
      7.23892   9.77390121E+003
      7.23963   9.74534537E+003
      7.24035   9.71662131E+003
      7.24107   9.68773143E+003
      7.24179   9.65867815E+003
      7.24251   9.62946390E+003
      7.24323   9.60009112E+003
      7.24394   9.57056226E+003
      7.24466   9.54087976E+003
      7.24538   9.51104609E+003
      7.24610   9.48106372E+003
      7.24682   9.45093512E+003
      7.24754   9.42066278E+003
      7.24826   9.39024919E+003
      7.24897   9.35969684E+003
      7.24969   9.32900823E+003
      7.25041   9.29818588E+003
      7.25113   9.26723230E+003
      7.25185   9.23615001E+003
      7.25257   9.20494152E+003
      7.25328   9.17360938E+003
      7.25400   9.14215611E+003
      7.25472   9.11058426E+003
      7.25544   9.07889636E+003
      7.25616   9.04709496E+003
      7.25688   9.01518261E+003
      7.25760   8.98316187E+003
      7.25831   8.95103530E+003
      7.25903   8.91880544E+003
      7.25975   8.88647487E+003
      7.26047   8.85404615E+003
      7.26119   8.82152184E+003
      7.26191   8.78890452E+003
      7.26262   8.75619675E+003
      7.26334   8.72340111E+003
      7.26406   8.69052017E+003
      7.26478   8.65755651E+003
      7.26550   8.62451269E+003
      7.26622   8.59139130E+003
      7.26693   8.55819492E+003
      7.26765   8.52492611E+003
      7.26837   8.49158745E+003
      7.26909   8.45818152E+003
      7.26981   8.42471089E+003
      7.27053   8.39117814E+003
      7.27125   8.35758584E+003
      7.27196   8.32393657E+003
      7.27268   8.29023288E+003
      7.27340   8.25647736E+003
      7.27412   8.22267257E+003
      7.27484   8.18882106E+003
      7.27556   8.15492542E+003
      7.27627   8.12098818E+003
      7.27699   8.08701192E+003
      7.27771   8.05299919E+003
      7.27843   8.01895253E+003
      7.27915   7.98487449E+003
      7.27987   7.95076762E+003
      7.28059   7.91663446E+003
      7.28130   7.88247755E+003
      7.28202   7.84829941E+003
      7.28274   7.81410258E+003
      7.28346   7.77988958E+003
      7.28418   7.74566292E+003
      7.28490   7.71142513E+003
      7.28561   7.67717870E+003
      7.28633   7.64292615E+003
      7.28705   7.60866997E+003
      7.28777   7.57441266E+003
      7.28849   7.54015669E+003
      7.28921   7.50590456E+003
      7.28992   7.47165873E+003
      7.29064   7.43742168E+003
      7.29136   7.40319586E+003
      7.29208   7.36898374E+003
      7.29280   7.33478775E+003
      7.29352   7.30061035E+003
      7.29424   7.26645396E+003
      7.29495   7.23232102E+003
      7.29567   7.19821394E+003
      7.29639   7.16413513E+003
      7.29711   7.13008701E+003
      7.29783   7.09607196E+003
      7.29855   7.06209238E+003
      7.29926   7.02815065E+003
      7.29998   6.99424913E+003
      7.30070   6.96039019E+003
      7.30142   6.92657619E+003
      7.30214   6.89280948E+003
      7.30286   6.85909239E+003
      7.30358   6.82542724E+003
      7.30429   6.79181637E+003
      7.30501   6.75826208E+003
      7.30573   6.72476667E+003
      7.30645   6.69133243E+003
      7.30717   6.65796165E+003
      7.30789   6.62465659E+003
      7.30860   6.59141953E+003
      7.30932   6.55825271E+003
      7.31004   6.52515837E+003
      7.31076   6.49213875E+003
      7.31148   6.45919608E+003
      7.31220   6.42633255E+003
      7.31291   6.39355038E+003
      7.31363   6.36085176E+003
      7.31435   6.32823886E+003
      7.31507   6.29571385E+003
      7.31579   6.26327890E+003
      7.31651   6.23093615E+003
      7.31723   6.19868774E+003
      7.31794   6.16653579E+003
      7.31866   6.13448242E+003
      7.31938   6.10252973E+003
      7.32010   6.07067981E+003
      7.32082   6.03893475E+003
      7.32154   6.00729661E+003
      7.32225   5.97576745E+003
      7.32297   5.94434931E+003
      7.32369   5.91304424E+003
      7.32441   5.88185424E+003
      7.32513   5.85078134E+003
      7.32585   5.81982753E+003
      7.32657   5.78899479E+003
      7.32728   5.75828510E+003
      7.32800   5.72770043E+003
      7.32872   5.69724272E+003
      7.32944   5.66691391E+003
      7.33016   5.63671593E+003
      7.33088   5.60665068E+003
      7.33159   5.57672007E+003
      7.33231   5.54692600E+003
      7.33303   5.51727032E+003
      7.33375   5.48775491E+003
      7.33447   5.45838162E+003
      7.33519   5.42915228E+003
      7.33590   5.40006873E+003
      7.33662   5.37113276E+003
      7.33734   5.34234619E+003
      7.33806   5.31371080E+003
      7.33878   5.28522837E+003
      7.33950   5.25690064E+003
      7.34022   5.22872938E+003
      7.34093   5.20071632E+003
      7.34165   5.17286319E+003
      7.34237   5.14517168E+003
      7.34309   5.11764350E+003
      7.34381   5.09028033E+003
      7.34453   5.06308384E+003
      7.34524   5.03605569E+003
      7.34596   5.00919753E+003
      7.34668   4.98251098E+003
      7.34740   4.95599766E+003
      7.34812   4.92965917E+003
      7.34884   4.90349712E+003
      7.34956   4.87751307E+003
      7.35027   4.85170860E+003
      7.35099   4.82608525E+003
      7.35171   4.80064456E+003
      7.35243   4.77538806E+003
      7.35315   4.75031725E+003
      7.35387   4.72543365E+003
      7.35458   4.70073874E+003
      7.35530   4.67623398E+003
      7.35602   4.65192083E+003
      7.35674   4.62780075E+003
      7.35746   4.60387516E+003
      7.35818   4.58014549E+003
      7.35889   4.55661313E+003
      7.35961   4.53327948E+003
      7.36033   4.51014593E+003
      7.36105   4.48721383E+003
      7.36177   4.46448454E+003
      7.36249   4.44195940E+003
      7.36321   4.41963973E+003
      7.36392   4.39752684E+003
      7.36464   4.37562205E+003
      7.36536   4.35392662E+003
      7.36608   4.33244183E+003
      7.36680   4.31116895E+003
      7.36752   4.29010921E+003
      7.36823   4.26926386E+003
      7.36895   4.24863410E+003
      7.36967   4.22822115E+003
      7.37039   4.20802620E+003
      7.37111   4.18805042E+003
      7.37183   4.16829499E+003
      7.37254   4.14876105E+003
      7.37326   4.12944975E+003
      7.37398   4.11036221E+003
      7.37470   4.09149954E+003
      7.37542   4.07286285E+003
      7.37614   4.05445321E+003
      7.37686   4.03627171E+003
      7.37757   4.01831940E+003
      7.37829   4.00059733E+003
      7.37901   3.98310654E+003
      7.37973   3.96584803E+003
      7.38045   3.94882282E+003
      7.38117   3.93203191E+003
      7.38188   3.91547627E+003
      7.38260   3.89915687E+003
      7.38332   3.88307467E+003
      7.38404   3.86723060E+003
      7.38476   3.85162560E+003
      7.38548   3.83626057E+003
      7.38620   3.82113642E+003
      7.38691   3.80625404E+003
      7.38763   3.79161431E+003
      7.38835   3.77721807E+003
      7.38907   3.76306619E+003
      7.38979   3.74915950E+003
      7.39051   3.73549883E+003
      7.39122   3.72208497E+003
      7.39194   3.70891873E+003
      7.39266   3.69600089E+003
      7.39338   3.68333222E+003
      7.39410   3.67091348E+003
      7.39482   3.65874541E+003
      7.39553   3.64682874E+003
      7.39625   3.63516419E+003
      7.39697   3.62375247E+003
      7.39769   3.61259426E+003
      7.39841   3.60169024E+003
      7.39913   3.59104109E+003
      7.39985   3.58064744E+003
      7.40056   3.57050995E+003
      7.40128   3.56062923E+003
      7.40200   3.55100590E+003
      7.40272   3.54164056E+003
      7.40344   3.53253379E+003
      7.40416   3.52368617E+003
      7.40487   3.51509826E+003
      7.40559   3.50677061E+003
      7.40631   3.49870375E+003
      7.40703   3.49089819E+003
      7.40775   3.48335446E+003
      7.40847   3.47607304E+003
      7.40919   3.46905441E+003
      7.40990   3.46229905E+003
      7.41062   3.45580740E+003
      7.41134   3.44957992E+003
      7.41206   3.44361702E+003
      7.41278   3.43791913E+003
      7.41350   3.43248664E+003
      7.41421   3.42731995E+003
      7.41493   3.42241943E+003
      7.41565   3.41778544E+003
      7.41637   3.41341833E+003
      7.41709   3.40931845E+003
      7.41781   3.40548610E+003
      7.41852   3.40192161E+003
      7.41924   3.39862526E+003
      7.41996   3.39559734E+003
      7.42068   3.39283812E+003
      7.42140   3.39034785E+003
      7.42212   3.38812678E+003
      7.42284   3.38617513E+003
      7.42355   3.38449312E+003
      7.42427   3.38308095E+003
      7.42499   3.38193881E+003
      7.42571   3.38106688E+003
      7.42643   3.38046532E+003
      7.42715   3.38013427E+003
      7.42786   3.38007386E+003
      7.42858   3.38028422E+003
      7.42930   3.38076546E+003
      7.43002   3.38151767E+003
      7.43074   3.38254092E+003
      7.43146   3.38383529E+003
      7.43218   3.38540081E+003
      7.43289   3.38723754E+003
      7.43361   3.38934550E+003
      7.43433   3.39172469E+003
      7.43505   3.39437511E+003
      7.43577   3.39729675E+003
      7.43649   3.40048957E+003
      7.43720   3.40395352E+003
      7.43792   3.40768855E+003
      7.43864   3.41169458E+003
      7.43936   3.41597153E+003
      7.44008   3.42051928E+003
      7.44080   3.42533773E+003
      7.44151   3.43042675E+003
      7.44223   3.43578618E+003
      7.44295   3.44141587E+003
      7.44367   3.44731565E+003
      7.44439   3.45348532E+003
      7.44511   3.45992469E+003
      7.44583   3.46663354E+003
      7.44654   3.47361163E+003
      7.44726   3.48085872E+003
      7.44798   3.48837454E+003
      7.44870   3.49615883E+003
      7.44942   3.50421129E+003
      7.45014   3.51253162E+003
      7.45085   3.52111949E+003
      7.45157   3.52997458E+003
      7.45229   3.53909653E+003
      7.45301   3.54848497E+003
      7.45373   3.55813954E+003
      7.45445   3.56805983E+003
      7.45517   3.57824543E+003
      7.45588   3.58869592E+003
      7.45660   3.59941086E+003
      7.45732   3.61038980E+003
      7.45804   3.62163226E+003
      7.45876   3.63313776E+003
      7.45948   3.64490579E+003
      7.46019   3.65693585E+003
      7.46091   3.66922740E+003
      7.46163   3.68177989E+003
      7.46235   3.69459276E+003
      7.46307   3.70766543E+003
      7.46379   3.72099731E+003
      7.46450   3.73458778E+003
      7.46522   3.74843623E+003
      7.46594   3.76254202E+003
      7.46666   3.77690447E+003
      7.46738   3.79152293E+003
      7.46810   3.80639671E+003
      7.46882   3.82152509E+003
      7.46953   3.83690737E+003
      7.47025   3.85254279E+003
      7.47097   3.86843062E+003
      7.47169   3.88457008E+003
      7.47241   3.90096039E+003
      7.47313   3.91760075E+003
      7.47384   3.93449034E+003
      7.47456   3.95162832E+003
      7.47528   3.96901386E+003
      7.47600   3.98664607E+003
      7.47672   4.00452409E+003
      7.47744   4.02264700E+003
      7.47816   4.04101391E+003
      7.47887   4.05962387E+003
      7.47959   4.07847593E+003
      7.48031   4.09756914E+003
      7.48103   4.11690252E+003
      7.48175   4.13647505E+003
      7.48247   4.15628574E+003
      7.48318   4.17633354E+003
      7.48390   4.19661742E+003
      7.48462   4.21713631E+003
      7.48534   4.23788912E+003
      7.48606   4.25887476E+003
      7.48678   4.28009211E+003
      7.48749   4.30154005E+003
      7.48821   4.32321742E+003
      7.48893   4.34512306E+003
      7.48965   4.36725578E+003
      7.49037   4.38961440E+003
      7.49109   4.41219768E+003
      7.49181   4.43500441E+003
      7.49252   4.45803332E+003
      7.49324   4.48128316E+003
      7.49396   4.50475264E+003
      7.49468   4.52844045E+003
      7.49540   4.55234529E+003
      7.49612   4.57646581E+003
      7.49683   4.60080066E+003
      7.49755   4.62534848E+003
      7.49827   4.65010788E+003
      7.49899   4.67507746E+003
      7.49971   4.70025579E+003
      7.50043   4.72564145E+003
      7.50115   4.75123296E+003
      7.50186   4.77702888E+003
      7.50258   4.80302770E+003
      7.50330   4.82922792E+003
      7.50402   4.85562802E+003
      7.50474   4.88222646E+003
      7.50546   4.90902169E+003
      7.50617   4.93601212E+003
      7.50689   4.96319619E+003
      7.50761   4.99057226E+003
      7.50833   5.01813873E+003
      7.50905   5.04589395E+003
      7.50977   5.07383626E+003
      7.51048   5.10196400E+003
      7.51120   5.13027546E+003
      7.51192   5.15876894E+003
      7.51264   5.18744272E+003
      7.51336   5.21629506E+003
      7.51408   5.24532419E+003
      7.51480   5.27452835E+003
      7.51551   5.30390573E+003
      7.51623   5.33345455E+003
      7.51695   5.36317297E+003
      7.51767   5.39305914E+003
      7.51839   5.42311122E+003
      7.51911   5.45332734E+003
      7.51982   5.48370559E+003
      7.52054   5.51424408E+003
      7.52126   5.54494089E+003
      7.52198   5.57579408E+003
      7.52270   5.60680168E+003
      7.52342   5.63796175E+003
      7.52414   5.66927228E+003
      7.52485   5.70073128E+003
      7.52557   5.73233673E+003
      7.52629   5.76408660E+003
      7.52701   5.79597884E+003
      7.52773   5.82801139E+003
      7.52845   5.86018217E+003
      7.52916   5.89248908E+003
      7.52988   5.92493001E+003
      7.53060   5.95750285E+003
      7.53132   5.99020544E+003
      7.53204   6.02303564E+003
      7.53276   6.05599128E+003
      7.53347   6.08907018E+003
      7.53419   6.12227012E+003
      7.53491   6.15558891E+003
      7.53563   6.18902432E+003
      7.53635   6.22257410E+003
      7.53707   6.25623600E+003
      7.53779   6.29000774E+003
      7.53850   6.32388705E+003
      7.53922   6.35787163E+003
      7.53994   6.39195917E+003
      7.54066   6.42614733E+003
      7.54138   6.46043380E+003
      7.54210   6.49481620E+003
      7.54281   6.52929219E+003
      7.54353   6.56385938E+003
      7.54425   6.59851538E+003
      7.54497   6.63325780E+003
      7.54569   6.66808421E+003
      7.54641   6.70299219E+003
      7.54713   6.73797930E+003
      7.54784   6.77304309E+003
      7.54856   6.80818110E+003
      7.54928   6.84339084E+003
      7.55000   6.87866985E+003
      7.55072   6.91401560E+003
      7.55144   6.94942561E+003
      7.55215   6.98489735E+003
      7.55287   7.02042828E+003
      7.55359   7.05601587E+003
      7.55431   7.09165757E+003
      7.55503   7.12735081E+003
      7.55575   7.16309301E+003
      7.55646   7.19888161E+003
      7.55718   7.23471401E+003
      7.55790   7.27058760E+003
      7.55862   7.30649978E+003
      7.55934   7.34244792E+003
      7.56006   7.37842941E+003
      7.56078   7.41444159E+003
      7.56149   7.45048183E+003
      7.56221   7.48654747E+003
      7.56293   7.52263585E+003
      7.56365   7.55874431E+003
      7.56437   7.59487015E+003
      7.56509   7.63101071E+003
      7.56580   7.66716328E+003
      7.56652   7.70332517E+003
      7.56724   7.73949367E+003
      7.56796   7.77566608E+003
      7.56868   7.81183967E+003
      7.56940   7.84801172E+003
      7.57012   7.88417950E+003
      7.57083   7.92034027E+003
      7.57155   7.95649129E+003
      7.57227   7.99262983E+003
      7.57299   8.02875312E+003
      7.57371   8.06485842E+003
      7.57443   8.10094295E+003
      7.57514   8.13700397E+003
      7.57586   8.17303871E+003
      7.57658   8.20904438E+003
      7.57730   8.24501823E+003
      7.57802   8.28095747E+003
      7.57874   8.31685932E+003
      7.57945   8.35272100E+003
      7.58017   8.38853973E+003
      7.58089   8.42431272E+003
      7.58161   8.46003718E+003
      7.58233   8.49571032E+003
      7.58305   8.53132936E+003
      7.58377   8.56689151E+003
      7.58448   8.60239396E+003
      7.58520   8.63783393E+003
      7.58592   8.67320863E+003
      7.58664   8.70851526E+003
      7.58736   8.74375104E+003
      7.58808   8.77891317E+003
      7.58879   8.81399887E+003
      7.58951   8.84900534E+003
      7.59023   8.88392980E+003
      7.59095   8.91876947E+003
      7.59167   8.95352156E+003
      7.59239   8.98818330E+003
      7.59311   9.02275190E+003
      7.59382   9.05722461E+003
      7.59454   9.09159863E+003
      7.59526   9.12587122E+003
      7.59598   9.16003960E+003
      7.59670   9.19410102E+003
      7.59742   9.22805272E+003
      7.59813   9.26189197E+003
      7.59885   9.29561600E+003
      7.59957   9.32922210E+003
      7.60029   9.36270752E+003
      7.60101   9.39606953E+003
      7.60173   9.42930543E+003
      7.60244   9.46241249E+003
      7.60316   9.49538802E+003
      7.60388   9.52822931E+003
      7.60460   9.56093367E+003
      7.60532   9.59349842E+003
      7.60604   9.62592089E+003
      7.60676   9.65819841E+003
      7.60747   9.69032832E+003
      7.60819   9.72230797E+003
      7.60891   9.75413473E+003
      7.60963   9.78580596E+003
      7.61035   9.81731905E+003
      7.61107   9.84867139E+003
      7.61178   9.87986038E+003
      7.61250   9.91088343E+003
      7.61322   9.94173797E+003
      7.61394   9.97242143E+003
      7.61466   1.00029313E+004
      7.61538   1.00332649E+004
      7.61610   1.00634199E+004
      7.61681   1.00933936E+004
      7.61753   1.01231837E+004
      7.61825   1.01527875E+004
      7.61897   1.01822026E+004
      7.61969   1.02114266E+004
      7.62041   1.02404571E+004
      7.62112   1.02692914E+004
      7.62184   1.02979274E+004
      7.62256   1.03263625E+004
      7.62328   1.03545944E+004
      7.62400   1.03826206E+004
      7.62472   1.04104389E+004
      7.62543   1.04380469E+004
      7.62615   1.04654423E+004
      7.62687   1.04926227E+004
      7.62759   1.05195859E+004
      7.62831   1.05463296E+004
      7.62903   1.05728516E+004
      7.62975   1.05991495E+004
      7.63046   1.06252213E+004
      7.63118   1.06510646E+004
      7.63190   1.06766774E+004
      7.63262   1.07020574E+004
      7.63334   1.07272025E+004
      7.63406   1.07521105E+004
      7.63477   1.07767795E+004
      7.63549   1.08012072E+004
      7.63621   1.08253916E+004
      7.63693   1.08493307E+004
      7.63765   1.08730224E+004
      7.63837   1.08964648E+004
      7.63909   1.09196559E+004
      7.63980   1.09425936E+004
      7.64052   1.09652761E+004
      7.64124   1.09877015E+004
      7.64196   1.10098678E+004
      7.64268   1.10317732E+004
      7.64340   1.10534158E+004
      7.64411   1.10747938E+004
      7.64483   1.10959054E+004
      7.64555   1.11167488E+004
      7.64627   1.11373223E+004
      7.64699   1.11576241E+004
      7.64771   1.11776526E+004
      7.64842   1.11974059E+004
      7.64914   1.12168825E+004
      7.64986   1.12360808E+004
      7.65058   1.12549990E+004
      7.65130   1.12736357E+004
      7.65202   1.12919893E+004
      7.65274   1.13100582E+004
      7.65345   1.13278409E+004
      7.65417   1.13453359E+004
      7.65489   1.13625419E+004
      7.65561   1.13794572E+004
      7.65633   1.13960806E+004
      7.65705   1.14124107E+004
      7.65776   1.14284460E+004
      7.65848   1.14441853E+004
      7.65920   1.14596273E+004
      7.65992   1.14747707E+004
      7.66064   1.14896142E+004
      7.66136   1.15041566E+004
      7.66208   1.15183968E+004
      7.66279   1.15323336E+004
      7.66351   1.15459657E+004
      7.66423   1.15592922E+004
      7.66495   1.15723120E+004
      7.66567   1.15850239E+004
      7.66639   1.15974270E+004
      7.66710   1.16095202E+004
      7.66782   1.16213027E+004
      7.66854   1.16327734E+004
      7.66926   1.16439314E+004
      7.66998   1.16547759E+004
      7.67070   1.16653061E+004
      7.67141   1.16755210E+004
      7.67213   1.16854199E+004
      7.67285   1.16950020E+004
      7.67357   1.17042666E+004
      7.67429   1.17132129E+004
      7.67501   1.17218404E+004
      7.67573   1.17301483E+004
      7.67644   1.17381361E+004
      7.67716   1.17458030E+004
      7.67788   1.17531487E+004
      7.67860   1.17601725E+004
      7.67932   1.17668739E+004
      7.68004   1.17732525E+004
      7.68075   1.17793078E+004
      7.68147   1.17850394E+004
      7.68219   1.17904470E+004
      7.68291   1.17955301E+004
      7.68363   1.18002885E+004
      7.68435   1.18047219E+004
      7.68507   1.18088299E+004
      7.68578   1.18126124E+004
      7.68650   1.18160692E+004
      7.68722   1.18192000E+004
      7.68794   1.18220048E+004
      7.68866   1.18244834E+004
      7.68938   1.18266357E+004
      7.69009   1.18284617E+004
      7.69081   1.18299613E+004
      7.69153   1.18311346E+004
      7.69225   1.18319816E+004
      7.69297   1.18325024E+004
      7.69369   1.18326970E+004
      7.69440   1.18325656E+004
      7.69512   1.18321083E+004
      7.69584   1.18313252E+004
      7.69656   1.18302167E+004
      7.69728   1.18287830E+004
      7.69800   1.18270243E+004
      7.69872   1.18249409E+004
      7.69943   1.18225331E+004
      7.70015   1.18198013E+004
      7.70087   1.18167460E+004
      7.70159   1.18133674E+004
      7.70231   1.18096661E+004
      7.70303   1.18056425E+004
      7.70374   1.18012971E+004
      7.70446   1.17966304E+004
      7.70518   1.17916430E+004
      7.70590   1.17863356E+004
      7.70662   1.17807086E+004
      7.70734   1.17747627E+004
      7.70805   1.17684987E+004
      7.70877   1.17619171E+004
      7.70949   1.17550188E+004
      7.71021   1.17478045E+004
      7.71093   1.17402749E+004
      7.71165   1.17324309E+004
      7.71237   1.17242732E+004
      7.71308   1.17158028E+004
      7.71380   1.17070206E+004
      7.71452   1.16979274E+004
      7.71524   1.16885241E+004
      7.71596   1.16788119E+004
      7.71668   1.16687915E+004
      7.71739   1.16584642E+004
      7.71811   1.16478308E+004
      7.71883   1.16368925E+004
      7.71955   1.16256504E+004
      7.72027   1.16141055E+004
      7.72099   1.16022591E+004
      7.72171   1.15901122E+004
      7.72242   1.15776662E+004
      7.72314   1.15649221E+004
      7.72386   1.15518812E+004
      7.72458   1.15385449E+004
      7.72530   1.15249144E+004
      7.72602   1.15109909E+004
      7.72673   1.14967759E+004
      7.72745   1.14822707E+004
      7.72817   1.14674767E+004
      7.72889   1.14523952E+004
      7.72961   1.14370277E+004
      7.73033   1.14213757E+004
      7.73104   1.14054406E+004
      7.73176   1.13892239E+004
      7.73248   1.13727271E+004
      7.73320   1.13559518E+004
      7.73392   1.13388995E+004
      7.73464   1.13215718E+004
      7.73536   1.13039702E+004
      7.73607   1.12860965E+004
      7.73679   1.12679521E+004
      7.73751   1.12495389E+004
      7.73823   1.12308584E+004
      7.73895   1.12119123E+004
      7.73967   1.11927024E+004
      7.74038   1.11732304E+004
      7.74110   1.11534980E+004
      7.74182   1.11335071E+004
      7.74254   1.11132593E+004
      7.74326   1.10927565E+004
      7.74398   1.10720006E+004
      7.74470   1.10509933E+004
      7.74541   1.10297365E+004
      7.74613   1.10082320E+004
      7.74685   1.09864818E+004
      7.74757   1.09644878E+004
      7.74829   1.09422518E+004
      7.74901   1.09197759E+004
      7.74972   1.08970619E+004
      7.75044   1.08741118E+004
      7.75116   1.08509276E+004
      7.75188   1.08275113E+004
      7.75260   1.08038649E+004
      7.75332   1.07799904E+004
      7.75403   1.07558898E+004
      7.75475   1.07315651E+004
      7.75547   1.07070186E+004
      7.75619   1.06822521E+004
      7.75691   1.06572678E+004
      7.75763   1.06320677E+004
      7.75835   1.06066541E+004
      7.75906   1.05810289E+004
      7.75978   1.05551943E+004
      7.76050   1.05291525E+004
      7.76122   1.05029056E+004
      7.76194   1.04764557E+004
      7.76266   1.04498051E+004
      7.76337   1.04229559E+004
      7.76409   1.03959102E+004
      7.76481   1.03686703E+004
      7.76553   1.03412384E+004
      7.76625   1.03136167E+004
      7.76697   1.02858073E+004
      7.76769   1.02578126E+004
      7.76840   1.02296348E+004
      7.76912   1.02012760E+004
      7.76984   1.01727386E+004
      7.77056   1.01440248E+004
      7.77128   1.01151368E+004
      7.77200   1.00860769E+004
      7.77271   1.00568475E+004
      7.77343   1.00274506E+004
      7.77415   9.99788876E+003
      7.77487   9.96816410E+003
      7.77559   9.93827894E+003
      7.77631   9.90823558E+003
      7.77702   9.87803632E+003
      7.77774   9.84768345E+003
      7.77846   9.81717928E+003
      7.77918   9.78652610E+003
      7.77990   9.75572623E+003
      7.78062   9.72478198E+003
      7.78134   9.69369565E+003
      7.78205   9.66246956E+003
      7.78277   9.63110602E+003
      7.78349   9.59960735E+003
      7.78421   9.56797587E+003
      7.78493   9.53621388E+003
      7.78565   9.50432371E+003
      7.78636   9.47230767E+003
      7.78708   9.44016808E+003
      7.78780   9.40790726E+003
      7.78852   9.37552751E+003
      7.78924   9.34303115E+003
      7.78996   9.31042050E+003
      7.79068   9.27769786E+003
      7.79139   9.24486554E+003
      7.79211   9.21192585E+003
      7.79283   9.17888109E+003
      7.79355   9.14573355E+003
      7.79427   9.11248555E+003
      7.79499   9.07913936E+003
      7.79570   9.04569729E+003
      7.79642   9.01216162E+003
      7.79714   8.97853463E+003
      7.79786   8.94481860E+003
      7.79858   8.91101580E+003
      7.79930   8.87712851E+003
      7.80001   8.84315898E+003
      7.80073   8.80910948E+003
      7.80145   8.77498225E+003
      7.80217   8.74077955E+003
      7.80289   8.70650362E+003
      7.80361   8.67215668E+003
      7.80433   8.63774098E+003
      7.80504   8.60325872E+003
      7.80576   8.56871214E+003
      7.80648   8.53410342E+003
      7.80720   8.49943478E+003
      7.80792   8.46470841E+003
      7.80864   8.42992649E+003
      7.80935   8.39509120E+003
      7.81007   8.36020470E+003
      7.81079   8.32526917E+003
      7.81151   8.29028674E+003
      7.81223   8.25525956E+003
      7.81295   8.22018977E+003
      7.81367   8.18507949E+003
      7.81438   8.14993083E+003
      7.81510   8.11474591E+003
      7.81582   8.07952681E+003
      7.81654   8.04427562E+003
      7.81726   8.00899442E+003
      7.81798   7.97368527E+003
      7.81869   7.93835023E+003
      7.81941   7.90299134E+003
      7.82013   7.86761063E+003
      7.82085   7.83221013E+003
      7.82157   7.79679184E+003
      7.82229   7.76135777E+003
      7.82300   7.72590990E+003
      7.82372   7.69045022E+003
      7.82444   7.65498067E+003
      7.82516   7.61950322E+003
      7.82588   7.58401981E+003
      7.82660   7.54853236E+003
      7.82732   7.51304279E+003
      7.82803   7.47755300E+003
      7.82875   7.44206489E+003
      7.82947   7.40658032E+003
      7.83019   7.37110117E+003
      7.83091   7.33562928E+003
      7.83163   7.30016649E+003
      7.83234   7.26471464E+003
      7.83306   7.22927552E+003
      7.83378   7.19385093E+003
      7.83450   7.15844267E+003
      7.83522   7.12305250E+003
      7.83594   7.08768217E+003
      7.83666   7.05233343E+003
      7.83737   7.01700801E+003
      7.83809   6.98170762E+003
      7.83881   6.94643395E+003
      7.83953   6.91118871E+003
      7.84025   6.87597355E+003
      7.84097   6.84079013E+003
      7.84168   6.80564009E+003
      7.84240   6.77052507E+003
      7.84312   6.73544666E+003
      7.84384   6.70040648E+003
      7.84456   6.66540610E+003
      7.84528   6.63044708E+003
      7.84599   6.59553099E+003
      7.84671   6.56065935E+003
      7.84743   6.52583369E+003
      7.84815   6.49105552E+003
      7.84887   6.45632632E+003
      7.84959   6.42164758E+003
      7.85031   6.38702074E+003
      7.85102   6.35244727E+003
      7.85174   6.31792858E+003
      7.85246   6.28346609E+003
      7.85318   6.24906120E+003
      7.85390   6.21471529E+003
      7.85462   6.18042973E+003
      7.85533   6.14620586E+003
      7.85605   6.11204503E+003
      7.85677   6.07794856E+003
      7.85749   6.04391775E+003
      7.85821   6.00995388E+003
      7.85893   5.97605823E+003
      7.85965   5.94223206E+003
      7.86036   5.90847660E+003
      7.86108   5.87479309E+003
      7.86180   5.84118273E+003
      7.86252   5.80764671E+003
      7.86324   5.77418622E+003
      7.86396   5.74080241E+003
      7.86467   5.70749643E+003
      7.86539   5.67426941E+003
      7.86611   5.64112247E+003
      7.86683   5.60805670E+003
      7.86755   5.57507319E+003
      7.86827   5.54217300E+003
      7.86898   5.50935719E+003
      7.86970   5.47662679E+003
      7.87042   5.44398282E+003
      7.87114   5.41142629E+003
      7.87186   5.37895818E+003
      7.87258   5.34657946E+003
      7.87330   5.31429110E+003
      7.87401   5.28209404E+003
      7.87473   5.24998920E+003
      7.87545   5.21797749E+003
      7.87617   5.18605982E+003
      7.87689   5.15423705E+003
      7.87761   5.12251006E+003
      7.87832   5.09087969E+003
      7.87904   5.05934677E+003
      7.87976   5.02791214E+003
      7.88048   4.99657658E+003
      7.88120   4.96534090E+003
      7.88192   4.93420586E+003
      7.88264   4.90317222E+003
      7.88335   4.87224072E+003
      7.88407   4.84141210E+003
      7.88479   4.81068707E+003
      7.88551   4.78006632E+003
      7.88623   4.74955055E+003
      7.88695   4.71914042E+003
      7.88766   4.68883659E+003
      7.88838   4.65863970E+003
      7.88910   4.62855038E+003
      7.88982   4.59856923E+003
      7.89054   4.56869686E+003
      7.89126   4.53893385E+003
      7.89197   4.50928076E+003
      7.89269   4.47973817E+003
      7.89341   4.45030660E+003
      7.89413   4.42098659E+003
      7.89485   4.39177865E+003
      7.89557   4.36268327E+003
      7.89629   4.33370096E+003
      7.89700   4.30483217E+003
      7.89772   4.27607738E+003
      7.89844   4.24743702E+003
      7.89916   4.21891153E+003
      7.89988   4.19050133E+003
      7.90060   4.16220683E+003
      7.90131   4.13402842E+003
      7.90203   4.10596648E+003
      7.90275   4.07802139E+003
      7.90347   4.05019349E+003
      7.90419   4.02248313E+003
      7.90491   3.99489063E+003
      7.90563   3.96741633E+003
      7.90634   3.94006052E+003
      7.90706   3.91282350E+003
      7.90778   3.88570555E+003
      7.90850   3.85870693E+003
      7.90922   3.83182792E+003
      7.90994   3.80506874E+003
      7.91065   3.77842964E+003
      7.91137   3.75191083E+003
      7.91209   3.72551254E+003
      7.91281   3.69923495E+003
      7.91353   3.67307826E+003
      7.91425   3.64704265E+003
      7.91496   3.62112827E+003
      7.91568   3.59533529E+003
      7.91640   3.56966385E+003
      7.91712   3.54411407E+003
      7.91784   3.51868610E+003
      7.91856   3.49338003E+003
      7.91928   3.46819596E+003
      7.91999   3.44313400E+003
      7.92071   3.41819422E+003
      7.92143   3.39337669E+003
      7.92215   3.36868147E+003
      7.92287   3.34410862E+003
      7.92359   3.31965817E+003
      7.92430   3.29533016E+003
      7.92502   3.27112461E+003
      7.92574   3.24704153E+003
      7.92646   3.22308092E+003
      7.92718   3.19924279E+003
      7.92790   3.17552711E+003
      7.92862   3.15193385E+003
      7.92933   3.12846300E+003
      7.93005   3.10511449E+003
      7.93077   3.08188830E+003
      7.93149   3.05878435E+003
      7.93221   3.03580257E+003
      7.93293   3.01294290E+003
      7.93364   2.99020524E+003
      7.93436   2.96758951E+003
      7.93508   2.94509561E+003
      7.93580   2.92272342E+003
      7.93652   2.90047283E+003
      7.93724   2.87834372E+003
      7.93795   2.85633595E+003
      7.93867   2.83444939E+003
      7.93939   2.81268389E+003
      7.94011   2.79103930E+003
      7.94083   2.76951545E+003
      7.94155   2.74811218E+003
      7.94227   2.72682931E+003
      7.94298   2.70566667E+003
      7.94370   2.68462406E+003
      7.94442   2.66370128E+003
      7.94514   2.64289814E+003
      7.94586   2.62221443E+003
      7.94658   2.60164993E+003
      7.94729   2.58120443E+003
      7.94801   2.56087770E+003
      7.94873   2.54066949E+003
      7.94945   2.52057959E+003
      7.95017   2.50060773E+003
      7.95089   2.48075367E+003
      7.95161   2.46101716E+003
      7.95232   2.44139793E+003
      7.95304   2.42189572E+003
      7.95376   2.40251026E+003
      7.95448   2.38324126E+003
      7.95520   2.36408844E+003
      7.95592   2.34505152E+003
      7.95663   2.32613021E+003
      7.95735   2.30732420E+003
      7.95807   2.28863320E+003
      7.95879   2.27005690E+003
      7.95951   2.25159498E+003
      7.96023   2.23324713E+003
      7.96094   2.21501304E+003
      7.96166   2.19689237E+003
      7.96238   2.17888480E+003
      7.96310   2.16099000E+003
      7.96382   2.14320762E+003
      7.96454   2.12553734E+003
      7.96526   2.10797879E+003
      7.96597   2.09053164E+003
      7.96669   2.07319553E+003
      7.96741   2.05597011E+003
      7.96813   2.03885502E+003
      7.96885   2.02184989E+003
      7.96957   2.00495437E+003
      7.97028   1.98816807E+003
      7.97100   1.97149063E+003
      7.97172   1.95492168E+003
      7.97244   1.93846083E+003
      7.97316   1.92210770E+003
      7.97388   1.90586191E+003
      7.97460   1.88972307E+003
      7.97531   1.87369080E+003
      7.97603   1.85776470E+003
      7.97675   1.84194437E+003
      7.97747   1.82622942E+003
      7.97819   1.81061944E+003
      7.97891   1.79511405E+003
      7.97962   1.77971282E+003
      7.98034   1.76441536E+003
      7.98106   1.74922126E+003
      7.98178   1.73413010E+003
      7.98250   1.71914147E+003
      7.98322   1.70425497E+003
      7.98393   1.68947016E+003
      7.98465   1.67478664E+003
      7.98537   1.66020399E+003
      7.98609   1.64572177E+003
      7.98681   1.63133958E+003
      7.98753   1.61705698E+003
      7.98825   1.60287355E+003
      7.98896   1.58878886E+003
      7.98968   1.57480249E+003
      7.99040   1.56091399E+003
      7.99112   1.54712295E+003
      7.99184   1.53342893E+003
      7.99256   1.51983149E+003
      7.99327   1.50633020E+003
      7.99399   1.49292462E+003
      7.99471   1.47961433E+003
      7.99543   1.46639887E+003
      7.99615   1.45327781E+003
      7.99687   1.44025072E+003
      7.99759   1.42731716E+003
      7.99830   1.41447667E+003
      7.99902   1.40172883E+003
      7.99974   1.38907319E+003
      8.00046   1.37650931E+003
      8.00118   1.36403674E+003
      8.00190   1.35165505E+003
      8.00261   1.33936378E+003
      8.00333   1.32716250E+003
      8.00405   1.31505076E+003
      8.00477   1.30302812E+003
      8.00549   1.29109414E+003
      8.00621   1.27924836E+003
      8.00692   1.26749034E+003
      8.00764   1.25581964E+003
      8.00836   1.24423582E+003
      8.00908   1.23273843E+003
      8.00980   1.22132702E+003
      8.01052   1.21000115E+003
      8.01124   1.19876037E+003
      8.01195   1.18760425E+003
      8.01267   1.17653233E+003
      8.01339   1.16554418E+003
      8.01411   1.15463934E+003
      8.01483   1.14381738E+003
      8.01555   1.13307786E+003
      8.01626   1.12242032E+003
      8.01698   1.11184433E+003
      8.01770   1.10134945E+003
      8.01842   1.09093523E+003
      8.01914   1.08060124E+003
      8.01986   1.07034703E+003
      8.02058   1.06017216E+003
      8.02129   1.05007620E+003
      8.02201   1.04005871E+003
      8.02273   1.03011924E+003
      8.02345   1.02025737E+003
      8.02417   1.01047265E+003
      8.02489   1.00076465E+003
      8.02560   9.91132930E+002
      8.02632   9.81577065E+002
      8.02704   9.72096615E+002
      8.02776   9.62691150E+002
      8.02848   9.53360238E+002
      8.02920   9.44103447E+002
      8.02991   9.34920348E+002
      8.03063   9.25810512E+002
      8.03135   9.16773510E+002
      8.03207   9.07808916E+002
      8.03279   8.98916303E+002
      8.03351   8.90095247E+002
      8.03423   8.81345324E+002
      8.03494   8.72666109E+002
      8.03566   8.64057182E+002
      8.03638   8.55518121E+002
      8.03710   8.47048507E+002
      8.03782   8.38647921E+002
      8.03854   8.30315945E+002
      8.03925   8.22052163E+002
      8.03997   8.13856160E+002
      8.04069   8.05727521E+002
      8.04141   7.97665834E+002
      8.04213   7.89670688E+002
      8.04285   7.81741671E+002
      8.04356   7.73878374E+002
      8.04428   7.66080389E+002
      8.04500   7.58347311E+002
      8.04572   7.50678732E+002
      8.04644   7.43074250E+002
      8.04716   7.35533461E+002
      8.04788   7.28055964E+002
      8.04859   7.20641358E+002
      8.04931   7.13289245E+002
      8.05003   7.05999227E+002
      8.05075   6.98770907E+002
      8.05147   6.91603892E+002
      8.05219   6.84497787E+002
      8.05290   6.77452201E+002
      8.05362   6.70466742E+002
      8.05434   6.63541022E+002
      8.05506   6.56674652E+002
      8.05578   6.49867246E+002
      8.05650   6.43118419E+002
      8.05722   6.36427788E+002
      8.05793   6.29794969E+002
      8.05865   6.23219583E+002
      8.05937   6.16701249E+002
      8.06009   6.10239591E+002
      8.06081   6.03834231E+002
      8.06153   5.97484795E+002
      8.06224   5.91190910E+002
      8.06296   5.84952202E+002
      8.06368   5.78768302E+002
      8.06440   5.72638841E+002
      8.06512   5.66563450E+002
      8.06584   5.60541765E+002
      8.06655   5.54573420E+002
      8.06727   5.48658053E+002
      8.06799   5.42795301E+002
      8.06871   5.36984805E+002
      8.06943   5.31226206E+002
      8.07015   5.25519148E+002
      8.07087   5.19863274E+002
      8.07158   5.14258230E+002
      8.07230   5.08703665E+002
      8.07302   5.03199227E+002
      8.07374   4.97744567E+002
      8.07446   4.92339336E+002
      8.07518   4.86983189E+002
      8.07589   4.81675781E+002
      8.07661   4.76416768E+002
      8.07733   4.71205809E+002
      8.07805   4.66042563E+002
      8.07877   4.60926691E+002
      8.07949   4.55857857E+002
      8.08021   4.50835725E+002
      8.08092   4.45859961E+002
      8.08164   4.40930231E+002
      8.08236   4.36046206E+002
      8.08308   4.31207555E+002
      8.08380   4.26413951E+002
      8.08452   4.21665067E+002
      8.08523   4.16960578E+002
      8.08595   4.12300162E+002
      8.08667   4.07683495E+002
      8.08739   4.03110258E+002
      8.08811   3.98580133E+002
      8.08883   3.94092801E+002
      8.08954   3.89647948E+002
      8.09026   3.85245259E+002
      8.09098   3.80884421E+002
      8.09170   3.76565124E+002
      8.09242   3.72287057E+002
      8.09314   3.68049914E+002
      8.09386   3.63853386E+002
      8.09457   3.59697170E+002
      8.09529   3.55580962E+002
      8.09601   3.51504459E+002
      8.09673   3.47467362E+002
      8.09745   3.43469372E+002
      8.09817   3.39510191E+002
      8.09888   3.35589523E+002
      8.09960   3.31707074E+002
      8.10032   3.27862551E+002
      8.10104   3.24055663E+002
      8.10176   3.20286119E+002
      8.10248   3.16553632E+002
      8.10320   3.12857915E+002
      8.10391   3.09198682E+002
      8.10463   3.05575649E+002
      8.10535   3.01988535E+002
      8.10607   2.98437057E+002
      8.10679   2.94920937E+002
      8.10751   2.91439897E+002
      8.10822   2.87993661E+002
      8.10894   2.84581953E+002
      8.10966   2.81204500E+002
      8.11038   2.77861030E+002
      8.11110   2.74551272E+002
      8.11182   2.71274958E+002
      8.11253   2.68031820E+002
      8.11325   2.64821591E+002
      8.11397   2.61644008E+002
      8.11469   2.58498806E+002
      8.11541   2.55385724E+002
      8.11613   2.52304502E+002
      8.11685   2.49254880E+002
      8.11756   2.46236602E+002
      8.11828   2.43249412E+002
      8.11900   2.40293054E+002
      8.11972   2.37367276E+002
      8.12044   2.34471826E+002
      8.12116   2.31606454E+002
      8.12187   2.28770911E+002
      8.12259   2.25964949E+002
      8.12331   2.23188323E+002
      8.12403   2.20440787E+002
      8.12475   2.17722100E+002
      8.12547   2.15032018E+002
      8.12619   2.12370302E+002
      8.12690   2.09736713E+002
      8.12762   2.07131013E+002
      8.12834   2.04552966E+002
      8.12906   2.02002337E+002
      8.12978   1.99478893E+002
      8.13050   1.96982402E+002
      8.13121   1.94512633E+002
      8.13193   1.92069356E+002
      8.13265   1.89652345E+002
      8.13337   1.87261372E+002
      8.13409   1.84896212E+002
      8.13481   1.82556643E+002
      8.13552   1.80242440E+002
      8.13624   1.77953383E+002
      8.13696   1.75689253E+002
      8.13768   1.73449830E+002
      8.13840   1.71234899E+002
      8.13912   1.69044242E+002
      8.13984   1.66877647E+002
      8.14055   1.64734899E+002
      8.14127   1.62615788E+002
      8.14199   1.60520103E+002
      8.14271   1.58447634E+002
      8.14343   1.56398174E+002
      8.14415   1.54371517E+002
      8.14486   1.52367458E+002
      8.14558   1.50385792E+002
      8.14630   1.48426318E+002
      8.14702   1.46488833E+002
      8.14774   1.44573139E+002
      8.14846   1.42679036E+002
      8.14918   1.40806328E+002
      8.14989   1.38954817E+002
      8.15061   1.37124310E+002
      8.15133   1.35314614E+002
      8.15205   1.33525534E+002
      8.15277   1.31756882E+002
      8.15349   1.30008467E+002
      8.15420   1.28280101E+002
      8.15492   1.26571596E+002
      8.15564   1.24882767E+002
      8.15636   1.23213428E+002
      8.15708   1.21563398E+002
      8.15780   1.19932493E+002
      8.15851   1.18320532E+002
      8.15923   1.16727336E+002
      8.15995   1.15152727E+002
      8.16067   1.13596526E+002
      8.16139   1.12058559E+002
      8.16211   1.10538650E+002
      8.16283   1.09036626E+002
      8.16354   1.07552313E+002
      8.16426   1.06085542E+002
      8.16498   1.04636142E+002
      8.16570   1.03203945E+002
      8.16642   1.01788782E+002
      8.16714   1.00390487E+002
      8.16785   9.90088958E+001
      8.16857   9.76438434E+001
      8.16929   9.62951671E+001
      8.17001   9.49627054E+001
      8.17073   9.36462977E+001
      8.17145   9.23457846E+001
      8.17217   9.10610079E+001
      8.17288   8.97918106E+001
      8.17360   8.85380368E+001
      8.17432   8.72995317E+001
      8.17504   8.60761417E+001
      8.17576   8.48677144E+001
      8.17648   8.36740984E+001
      8.17719   8.24951435E+001
      8.17791   8.13307007E+001
      8.17863   8.01806219E+001
      8.17935   7.90447604E+001
      8.18007   7.79229704E+001
      8.18079   7.68151073E+001
      8.18150   7.57210275E+001
      8.18222   7.46405887E+001
      8.18294   7.35736495E+001
      8.18366   7.25200698E+001
      8.18438   7.14797102E+001
      8.18510   7.04524328E+001
      8.18582   6.94381007E+001
      8.18653   6.84365778E+001
      8.18725   6.74477293E+001
      8.18797   6.64714215E+001
      8.18869   6.55075216E+001
      8.18941   6.45558979E+001
      8.19013   6.36164199E+001
      8.19084   6.26889580E+001
      8.19156   6.17733836E+001
      8.19228   6.08695692E+001
      8.19300   5.99773884E+001
      8.19372   5.90967157E+001
      8.19444   5.82274268E+001
      8.19516   5.73693982E+001
      8.19587   5.65225076E+001
      8.19659   5.56866335E+001
      8.19731   5.48616557E+001
      8.19803   5.40474547E+001
      8.19875   5.32439123E+001
      8.19947   5.24509109E+001
      8.20018   5.16683343E+001
      8.20090   5.08960670E+001
      8.20162   5.01339945E+001
      8.20234   4.93820035E+001
      8.20306   4.86399814E+001
      8.20378   4.79078167E+001
      8.20449   4.71853988E+001
      8.20521   4.64726181E+001
      8.20593   4.57693659E+001
      8.20665   4.50755345E+001
      8.20737   4.43910172E+001
      8.20809   4.37157079E+001
      8.20881   4.30495019E+001
      8.20952   4.23922951E+001
      8.21024   4.17439845E+001
      8.21096   4.11044678E+001
      8.21168   4.04736438E+001
      8.21240   3.98514122E+001
      8.21312   3.92376735E+001
      8.21383   3.86323292E+001
      8.21455   3.80352816E+001
      8.21527   3.74464339E+001
      8.21599   3.68656902E+001
      8.21671   3.62929554E+001
      8.21743   3.57281356E+001
      8.21815   3.51711373E+001
      8.21886   3.46218681E+001
      8.21958   3.40802365E+001
      8.22030   3.35461518E+001
      8.22102   3.30195241E+001
      8.22174   3.25002643E+001
      8.22246   3.19882843E+001
      8.22317   3.14834968E+001
      8.22389   3.09858151E+001
      8.22461   3.04951536E+001
      8.22533   3.00114275E+001
      8.22605   2.95345526E+001
      8.22677   2.90644456E+001
      8.22748   2.86010241E+001
      8.22820   2.81442065E+001
      8.22892   2.76939118E+001
      8.22964   2.72500600E+001
      8.23036   2.68125717E+001
      8.23108   2.63813685E+001
      8.23180   2.59563726E+001
      8.23251   2.55375069E+001
      8.23323   2.51246954E+001
      8.23395   2.47178624E+001
      8.23467   2.43169334E+001
      8.23539   2.39218343E+001
      8.23611   2.35324919E+001
      8.23682   2.31488338E+001
      8.23754   2.27707881E+001
      8.23826   2.23982840E+001
      8.23898   2.20312510E+001
      8.23970   2.16696197E+001
      8.24042   2.13133211E+001
      8.24114   2.09622871E+001
      8.24185   2.06164503E+001
      8.24257   2.02757438E+001
      8.24329   1.99401018E+001
      8.24401   1.96094587E+001
      8.24473   1.92837499E+001
      8.24545   1.89629114E+001
      8.24616   1.86468800E+001
      8.24688   1.83355928E+001
      8.24760   1.80289880E+001
      8.24832   1.77270042E+001
      8.24904   1.74295807E+001
      8.24976   1.71366575E+001
      8.25047   1.68481753E+001
      8.25119   1.65640753E+001
      8.25191   1.62842994E+001
      8.25263   1.60087900E+001
      8.25335   1.57374905E+001
      8.25407   1.54703445E+001
      8.25479   1.52072965E+001
      8.25550   1.49482915E+001
      8.25622   1.46932750E+001
      8.25694   1.44421933E+001
      8.25766   1.41949932E+001
      8.25838   1.39516222E+001
      8.25910   1.37120281E+001
      8.25981   1.34761597E+001
      8.26053   1.32439660E+001
      8.26125   1.30153968E+001
      8.26197   1.27904024E+001
      8.26269   1.25689336E+001
      8.26341   1.23509420E+001
      8.26413   1.21363794E+001
      8.26484   1.19251984E+001
      8.26556   1.17173522E+001
      8.26628   1.15127942E+001
      8.26700   1.13114788E+001
      8.26772   1.11133605E+001
      8.26844   1.09183946E+001
      8.26915   1.07265369E+001
      8.26987   1.05377436E+001
      8.27059   1.03519715E+001
      8.27131   1.01691779E+001
      8.27203   9.98932063E+000
      8.27275   9.81235791E+000
      8.27346   9.63824859E+000
      8.27418   9.46695194E+000
      8.27490   9.29842775E+000
      8.27562   9.13263628E+000
      8.27634   8.96953827E+000
      8.27706   8.80909494E+000
      8.27778   8.65126797E+000
      8.27849   8.49601952E+000
      8.27921   8.34331220E+000
      8.27993   8.19310909E+000
      8.28065   8.04537371E+000
      8.28137   7.90007005E+000
      8.28209   7.75716252E+000
