      6.12243   4.44015395E+000
      6.12316   4.52917256E+000
      6.12390   4.61983712E+000
      6.12464   4.71217514E+000
      6.12538   4.80621451E+000
      6.12612   4.90198355E+000
      6.12685   4.99951096E+000
      6.12759   5.09882590E+000
      6.12833   5.19995790E+000
      6.12907   5.30293696E+000
      6.12981   5.40779347E+000
      6.13054   5.51455829E+000
      6.13128   5.62326270E+000
      6.13202   5.73393843E+000
      6.13276   5.84661766E+000
      6.13350   5.96133303E+000
      6.13423   6.07811763E+000
      6.13497   6.19700502E+000
      6.13571   6.31802924E+000
      6.13645   6.44122480E+000
      6.13718   6.56662668E+000
      6.13792   6.69427038E+000
      6.13866   6.82419184E+000
      6.13940   6.95642756E+000
      6.14014   7.09101448E+000
      6.14087   7.22799010E+000
      6.14161   7.36739241E+000
      6.14235   7.50925992E+000
      6.14309   7.65363167E+000
      6.14383   7.80054722E+000
      6.14456   7.95004669E+000
      6.14530   8.10217072E+000
      6.14604   8.25696050E+000
      6.14678   8.41445779E+000
      6.14752   8.57470489E+000
      6.14825   8.73774468E+000
      6.14899   8.90362061E+000
      6.14973   9.07237668E+000
      6.15047   9.24405752E+000
      6.15121   9.41870830E+000
      6.15194   9.59637483E+000
      6.15268   9.77710348E+000
      6.15342   9.96094125E+000
      6.15416   1.01479357E+001
      6.15490   1.03381352E+001
      6.15563   1.05315885E+001
      6.15637   1.07283450E+001
      6.15711   1.09284550E+001
      6.15785   1.11319691E+001
      6.15859   1.13389388E+001
      6.15932   1.15494162E+001
      6.16006   1.17634539E+001
      6.16080   1.19811054E+001
      6.16154   1.22024248E+001
      6.16227   1.24274668E+001
      6.16301   1.26562869E+001
      6.16375   1.28889411E+001
      6.16449   1.31254863E+001
      6.16523   1.33659802E+001
      6.16596   1.36104808E+001
      6.16670   1.38590472E+001
      6.16744   1.41117391E+001
      6.16818   1.43686170E+001
      6.16892   1.46297419E+001
      6.16965   1.48951759E+001
      6.17039   1.51649816E+001
      6.17113   1.54392224E+001
      6.17187   1.57179624E+001
      6.17261   1.60012668E+001
      6.17334   1.62892012E+001
      6.17408   1.65818321E+001
      6.17482   1.68792269E+001
      6.17556   1.71814537E+001
      6.17630   1.74885815E+001
      6.17703   1.78006798E+001
      6.17777   1.81178194E+001
      6.17851   1.84400716E+001
      6.17925   1.87675085E+001
      6.17999   1.91002033E+001
      6.18072   1.94382299E+001
      6.18146   1.97816629E+001
      6.18220   2.01305781E+001
      6.18294   2.04850518E+001
      6.18368   2.08451614E+001
      6.18441   2.12109851E+001
      6.18515   2.15826021E+001
      6.18589   2.19600923E+001
      6.18663   2.23435366E+001
      6.18736   2.27330169E+001
      6.18810   2.31286159E+001
      6.18884   2.35304171E+001
      6.18958   2.39385052E+001
      6.19032   2.43529657E+001
      6.19105   2.47738849E+001
      6.19179   2.52013502E+001
      6.19253   2.56354501E+001
      6.19327   2.60762737E+001
      6.19401   2.65239114E+001
      6.19474   2.69784543E+001
      6.19548   2.74399947E+001
      6.19622   2.79086258E+001
      6.19696   2.83844416E+001
      6.19770   2.88675376E+001
      6.19843   2.93580097E+001
      6.19917   2.98559552E+001
      6.19991   3.03614723E+001
      6.20065   3.08746604E+001
      6.20139   3.13956195E+001
      6.20212   3.19244511E+001
      6.20286   3.24612575E+001
      6.20360   3.30061421E+001
      6.20434   3.35592094E+001
      6.20508   3.41205648E+001
      6.20581   3.46903151E+001
      6.20655   3.52685677E+001
      6.20729   3.58554316E+001
      6.20803   3.64510164E+001
      6.20877   3.70554332E+001
      6.20950   3.76687940E+001
      6.21024   3.82912118E+001
      6.21098   3.89228010E+001
      6.21172   3.95636769E+001
      6.21245   4.02139560E+001
      6.21319   4.08737558E+001
      6.21393   4.15431952E+001
      6.21467   4.22223940E+001
      6.21541   4.29114733E+001
      6.21614   4.36105551E+001
      6.21688   4.43197630E+001
      6.21762   4.50392213E+001
      6.21836   4.57690557E+001
      6.21910   4.65093931E+001
      6.21983   4.72603614E+001
      6.22057   4.80220900E+001
      6.22131   4.87947091E+001
      6.22205   4.95783504E+001
      6.22279   5.03731466E+001
      6.22352   5.11792317E+001
      6.22426   5.19967410E+001
      6.22500   5.28258107E+001
      6.22574   5.36665786E+001
      6.22648   5.45191835E+001
      6.22721   5.53837654E+001
      6.22795   5.62604656E+001
      6.22869   5.71494267E+001
      6.22943   5.80507925E+001
      6.23017   5.89647079E+001
      6.23090   5.98913193E+001
      6.23164   6.08307741E+001
      6.23238   6.17832211E+001
      6.23312   6.27488103E+001
      6.23386   6.37276931E+001
      6.23459   6.47200220E+001
      6.23533   6.57259507E+001
      6.23607   6.67456345E+001
      6.23681   6.77792297E+001
      6.23754   6.88268939E+001
      6.23828   6.98887860E+001
      6.23902   7.09650663E+001
      6.23976   7.20558963E+001
      6.24050   7.31614388E+001
      6.24123   7.42818578E+001
      6.24197   7.54173188E+001
      6.24271   7.65679884E+001
      6.24345   7.77340345E+001
      6.24419   7.89156265E+001
      6.24492   8.01129350E+001
      6.24566   8.13261317E+001
      6.24640   8.25553900E+001
      6.24714   8.38008842E+001
      6.24788   8.50627902E+001
      6.24861   8.63412852E+001
      6.24935   8.76365474E+001
      6.25009   8.89487567E+001
      6.25083   9.02780940E+001
      6.25157   9.16247418E+001
      6.25230   9.29888836E+001
      6.25304   9.43707046E+001
      6.25378   9.57703908E+001
      6.25452   9.71881301E+001
      6.25526   9.86241112E+001
      6.25599   1.00078524E+002
      6.25673   1.01551561E+002
      6.25747   1.03043414E+002
      6.25821   1.04554278E+002
      6.25895   1.06084348E+002
      6.25968   1.07633821E+002
      6.26042   1.09202894E+002
      6.26116   1.10791768E+002
      6.26190   1.12400642E+002
      6.26263   1.14029720E+002
      6.26337   1.15679203E+002
      6.26411   1.17349298E+002
      6.26485   1.19040208E+002
      6.26559   1.20752143E+002
      6.26632   1.22485309E+002
      6.26706   1.24239917E+002
      6.26780   1.26016178E+002
      6.26854   1.27814303E+002
      6.26928   1.29634507E+002
      6.27001   1.31477004E+002
      6.27075   1.33342011E+002
      6.27149   1.35229744E+002
      6.27223   1.37140421E+002
      6.27297   1.39074264E+002
      6.27370   1.41031493E+002
      6.27444   1.43012329E+002
      6.27518   1.45016997E+002
      6.27592   1.47045722E+002
      6.27666   1.49098728E+002
      6.27739   1.51176244E+002
      6.27813   1.53278497E+002
      6.27887   1.55405718E+002
      6.27961   1.57558136E+002
      6.28035   1.59735984E+002
      6.28108   1.61939495E+002
      6.28182   1.64168903E+002
      6.28256   1.66424444E+002
      6.28330   1.68706353E+002
      6.28404   1.71014869E+002
      6.28477   1.73350230E+002
      6.28551   1.75712677E+002
      6.28625   1.78102450E+002
      6.28699   1.80519791E+002
      6.28773   1.82964944E+002
      6.28846   1.85438153E+002
      6.28920   1.87939663E+002
      6.28994   1.90469722E+002
      6.29068   1.93028575E+002
      6.29141   1.95616472E+002
      6.29215   1.98233662E+002
      6.29289   2.00880396E+002
      6.29363   2.03556926E+002
      6.29437   2.06263503E+002
      6.29510   2.09000382E+002
      6.29584   2.11767816E+002
      6.29658   2.14566062E+002
      6.29732   2.17395375E+002
      6.29806   2.20256013E+002
      6.29879   2.23148234E+002
      6.29953   2.26072297E+002
      6.30027   2.29028462E+002
      6.30101   2.32016989E+002
      6.30175   2.35038141E+002
      6.30248   2.38092179E+002
      6.30322   2.41179367E+002
      6.30396   2.44299970E+002
      6.30470   2.47454251E+002
      6.30544   2.50642476E+002
      6.30617   2.53864912E+002
      6.30691   2.57121826E+002
      6.30765   2.60413485E+002
      6.30839   2.63740158E+002
      6.30913   2.67102114E+002
      6.30986   2.70499623E+002
      6.31060   2.73932954E+002
      6.31134   2.77402380E+002
      6.31208   2.80908172E+002
      6.31282   2.84450601E+002
      6.31355   2.88029940E+002
      6.31429   2.91646463E+002
      6.31503   2.95300444E+002
      6.31577   2.98992155E+002
      6.31650   3.02721873E+002
      6.31724   3.06489872E+002
      6.31798   3.10296428E+002
      6.31872   3.14141817E+002
      6.31946   3.18026314E+002
      6.32019   3.21950196E+002
      6.32093   3.25913741E+002
      6.32167   3.29917225E+002
      6.32241   3.33960926E+002
      6.32315   3.38045122E+002
      6.32388   3.42170091E+002
      6.32462   3.46336110E+002
      6.32536   3.50543458E+002
      6.32610   3.54792414E+002
      6.32684   3.59083255E+002
      6.32757   3.63416261E+002
      6.32831   3.67791711E+002
      6.32905   3.72209882E+002
      6.32979   3.76671054E+002
      6.33053   3.81175505E+002
      6.33126   3.85723514E+002
      6.33200   3.90315359E+002
      6.33274   3.94951320E+002
      6.33348   3.99631673E+002
      6.33422   4.04356698E+002
      6.33495   4.09126671E+002
      6.33569   4.13941871E+002
      6.33643   4.18802575E+002
      6.33717   4.23709060E+002
      6.33791   4.28661603E+002
      6.33864   4.33660480E+002
      6.33938   4.38705966E+002
      6.34012   4.43798339E+002
      6.34086   4.48937871E+002
      6.34159   4.54124839E+002
      6.34233   4.59359516E+002
      6.34307   4.64642175E+002
      6.34381   4.69973089E+002
      6.34455   4.75352531E+002
      6.34528   4.80780771E+002
      6.34602   4.86258081E+002
      6.34676   4.91784731E+002
      6.34750   4.97360990E+002
      6.34824   5.02987125E+002
      6.34897   5.08663406E+002
      6.34971   5.14390098E+002
      6.35045   5.20167467E+002
      6.35119   5.25995777E+002
      6.35193   5.31875293E+002
      6.35266   5.37806278E+002
      6.35340   5.43788992E+002
      6.35414   5.49823696E+002
      6.35488   5.55910649E+002
      6.35562   5.62050110E+002
      6.35635   5.68242335E+002
      6.35709   5.74487580E+002
      6.35783   5.80786098E+002
      6.35857   5.87138143E+002
      6.35931   5.93543966E+002
      6.36004   6.00003816E+002
      6.36078   6.06517943E+002
      6.36152   6.13086592E+002
      6.36226   6.19710010E+002
      6.36300   6.26388439E+002
      6.36373   6.33122123E+002
      6.36447   6.39911300E+002
      6.36521   6.46756209E+002
      6.36595   6.53657088E+002
      6.36668   6.60614170E+002
      6.36742   6.67627689E+002
      6.36816   6.74697876E+002
      6.36890   6.81824959E+002
      6.36964   6.89009166E+002
      6.37037   6.96250721E+002
      6.37111   7.03549847E+002
      6.37185   7.10906765E+002
      6.37259   7.18321692E+002
      6.37333   7.25794846E+002
      6.37406   7.33326439E+002
      6.37480   7.40916683E+002
      6.37554   7.48565787E+002
      6.37628   7.56273958E+002
      6.37702   7.64041399E+002
      6.37775   7.71868312E+002
      6.37849   7.79754896E+002
      6.37923   7.87701347E+002
      6.37997   7.95707859E+002
      6.38071   8.03774622E+002
      6.38144   8.11901824E+002
      6.38218   8.20089651E+002
      6.38292   8.28338285E+002
      6.38366   8.36647904E+002
      6.38440   8.45018686E+002
      6.38513   8.53450803E+002
      6.38587   8.61944426E+002
      6.38661   8.70499721E+002
      6.38735   8.79116853E+002
      6.38809   8.87795982E+002
      6.38882   8.96537266E+002
      6.38956   9.05340858E+002
      6.39030   9.14206908E+002
      6.39104   9.23135565E+002
      6.39177   9.32126971E+002
      6.39251   9.41181267E+002
      6.39325   9.50298589E+002
      6.39399   9.59479070E+002
      6.39473   9.68722839E+002
      6.39546   9.78030022E+002
      6.39620   9.87400739E+002
      6.39694   9.96835109E+002
      6.39768   1.00633325E+003
      6.39842   1.01589526E+003
      6.39915   1.02552125E+003
      6.39989   1.03521133E+003
      6.40063   1.04496559E+003
      6.40137   1.05478413E+003
      6.40211   1.06466703E+003
      6.40284   1.07461438E+003
      6.40358   1.08462626E+003
      6.40432   1.09470274E+003
      6.40506   1.10484390E+003
      6.40580   1.11504981E+003
      6.40653   1.12532053E+003
      6.40727   1.13565612E+003
      6.40801   1.14605662E+003
      6.40875   1.15652210E+003
      6.40949   1.16705259E+003
      6.41022   1.17764813E+003
      6.41096   1.18830876E+003
      6.41170   1.19903451E+003
      6.41244   1.20982541E+003
      6.41318   1.22068146E+003
      6.41391   1.23160270E+003
      6.41465   1.24258912E+003
      6.41539   1.25364074E+003
      6.41613   1.26475754E+003
      6.41686   1.27593954E+003
      6.41760   1.28718671E+003
      6.41834   1.29849904E+003
      6.41908   1.30987650E+003
      6.41982   1.32131908E+003
      6.42055   1.33282674E+003
      6.42129   1.34439943E+003
      6.42203   1.35603712E+003
      6.42277   1.36773976E+003
      6.42351   1.37950729E+003
      6.42424   1.39133966E+003
      6.42498   1.40323679E+003
      6.42572   1.41519861E+003
      6.42646   1.42722505E+003
      6.42720   1.43931601E+003
      6.42793   1.45147142E+003
      6.42867   1.46369118E+003
      6.42941   1.47597518E+003
      6.43015   1.48832332E+003
      6.43089   1.50073548E+003
      6.43162   1.51321154E+003
      6.43236   1.52575138E+003
      6.43310   1.53835486E+003
      6.43384   1.55102185E+003
      6.43458   1.56375219E+003
      6.43531   1.57654575E+003
      6.43605   1.58940235E+003
      6.43679   1.60232184E+003
      6.43753   1.61530404E+003
      6.43827   1.62834878E+003
      6.43900   1.64145588E+003
      6.43974   1.65462514E+003
      6.44048   1.66785636E+003
      6.44122   1.68114935E+003
      6.44195   1.69450389E+003
      6.44269   1.70791976E+003
      6.44343   1.72139674E+003
      6.44417   1.73493461E+003
      6.44491   1.74853311E+003
      6.44564   1.76219201E+003
      6.44638   1.77591106E+003
      6.44712   1.78968999E+003
      6.44786   1.80352855E+003
      6.44860   1.81742645E+003
      6.44933   1.83138342E+003
      6.45007   1.84539918E+003
      6.45081   1.85947343E+003
      6.45155   1.87360586E+003
      6.45229   1.88779618E+003
      6.45302   1.90204406E+003
      6.45376   1.91634918E+003
      6.45450   1.93071122E+003
      6.45524   1.94512983E+003
      6.45598   1.95960468E+003
      6.45671   1.97413541E+003
      6.45745   1.98872166E+003
      6.45819   2.00336306E+003
      6.45893   2.01805925E+003
      6.45967   2.03280984E+003
      6.46040   2.04761445E+003
      6.46114   2.06247267E+003
      6.46188   2.07738410E+003
      6.46262   2.09234834E+003
      6.46336   2.10736497E+003
      6.46409   2.12243356E+003
      6.46483   2.13755367E+003
      6.46557   2.15272487E+003
      6.46631   2.16794671E+003
      6.46704   2.18321873E+003
      6.46778   2.19854047E+003
      6.46852   2.21391145E+003
      6.46926   2.22933121E+003
      6.47000   2.24479925E+003
      6.47073   2.26031508E+003
      6.47147   2.27587821E+003
      6.47221   2.29148811E+003
      6.47295   2.30714427E+003
      6.47369   2.32284618E+003
      6.47442   2.33859329E+003
      6.47516   2.35438508E+003
      6.47590   2.37022099E+003
      6.47664   2.38610046E+003
      6.47738   2.40202294E+003
      6.47811   2.41798786E+003
      6.47885   2.43399464E+003
      6.47959   2.45004269E+003
      6.48033   2.46613143E+003
      6.48107   2.48226025E+003
      6.48180   2.49842854E+003
      6.48254   2.51463570E+003
      6.48328   2.53088109E+003
      6.48402   2.54716409E+003
      6.48476   2.56348406E+003
      6.48549   2.57984035E+003
      6.48623   2.59623232E+003
      6.48697   2.61265930E+003
      6.48771   2.62912063E+003
      6.48845   2.64561562E+003
      6.48918   2.66214360E+003
      6.48992   2.67870388E+003
      6.49066   2.69529577E+003
      6.49140   2.71191855E+003
      6.49213   2.72857151E+003
      6.49287   2.74525394E+003
      6.49361   2.76196511E+003
      6.49435   2.77870429E+003
      6.49509   2.79547073E+003
      6.49582   2.81226369E+003
      6.49656   2.82908241E+003
      6.49730   2.84592614E+003
      6.49804   2.86279409E+003
      6.49878   2.87968551E+003
      6.49951   2.89659959E+003
      6.50025   2.91353556E+003
      6.50099   2.93049261E+003
      6.50173   2.94746994E+003
      6.50247   2.96446675E+003
      6.50320   2.98148220E+003
      6.50394   2.99851549E+003
      6.50468   3.01556578E+003
      6.50542   3.03263222E+003
      6.50616   3.04971398E+003
      6.50689   3.06681021E+003
      6.50763   3.08392004E+003
      6.50837   3.10104262E+003
      6.50911   3.11817708E+003
      6.50985   3.13532253E+003
      6.51058   3.15247810E+003
      6.51132   3.16964290E+003
      6.51206   3.18681602E+003
      6.51280   3.20399658E+003
      6.51354   3.22118366E+003
      6.51427   3.23837635E+003
      6.51501   3.25557373E+003
      6.51575   3.27277488E+003
      6.51649   3.28997886E+003
      6.51722   3.30718474E+003
      6.51796   3.32439158E+003
      6.51870   3.34159843E+003
      6.51944   3.35880434E+003
      6.52018   3.37600834E+003
      6.52091   3.39320947E+003
      6.52165   3.41040677E+003
      6.52239   3.42759926E+003
      6.52313   3.44478596E+003
      6.52387   3.46196589E+003
      6.52460   3.47913805E+003
      6.52534   3.49630145E+003
      6.52608   3.51345510E+003
      6.52682   3.53059799E+003
      6.52756   3.54772910E+003
      6.52829   3.56484744E+003
      6.52903   3.58195197E+003
      6.52977   3.59904168E+003
      6.53051   3.61611554E+003
      6.53125   3.63317253E+003
      6.53198   3.65021160E+003
      6.53272   3.66723171E+003
      6.53346   3.68423184E+003
      6.53420   3.70121092E+003
      6.53494   3.71816791E+003
      6.53567   3.73510176E+003
      6.53641   3.75201141E+003
      6.53715   3.76889579E+003
      6.53789   3.78575385E+003
      6.53863   3.80258452E+003
      6.53936   3.81938673E+003
      6.54010   3.83615940E+003
      6.54084   3.85290146E+003
      6.54158   3.86961183E+003
      6.54231   3.88628943E+003
      6.54305   3.90293317E+003
      6.54379   3.91954197E+003
      6.54453   3.93611474E+003
      6.54527   3.95265038E+003
      6.54600   3.96914782E+003
      6.54674   3.98560594E+003
      6.54748   4.00202365E+003
      6.54822   4.01839986E+003
      6.54896   4.03473346E+003
      6.54969   4.05102335E+003
      6.55043   4.06726843E+003
      6.55117   4.08346759E+003
      6.55191   4.09961973E+003
      6.55265   4.11572374E+003
      6.55338   4.13177851E+003
      6.55412   4.14778293E+003
      6.55486   4.16373590E+003
      6.55560   4.17963629E+003
      6.55634   4.19548302E+003
      6.55707   4.21127495E+003
      6.55781   4.22701098E+003
      6.55855   4.24269000E+003
      6.55929   4.25831090E+003
      6.56003   4.27387257E+003
      6.56076   4.28937389E+003
      6.56150   4.30481376E+003
      6.56224   4.32019107E+003
      6.56298   4.33550471E+003
      6.56372   4.35075356E+003
      6.56445   4.36593653E+003
      6.56519   4.38105251E+003
      6.56593   4.39610039E+003
      6.56667   4.41107906E+003
      6.56741   4.42598744E+003
      6.56814   4.44082441E+003
      6.56888   4.45558889E+003
      6.56962   4.47027976E+003
      6.57036   4.48489595E+003
      6.57109   4.49943635E+003
      6.57183   4.51389987E+003
      6.57257   4.52828544E+003
      6.57331   4.54259196E+003
      6.57405   4.55681835E+003
      6.57478   4.57096354E+003
      6.57552   4.58502644E+003
      6.57626   4.59900599E+003
      6.57700   4.61290111E+003
      6.57774   4.62671075E+003
      6.57847   4.64043383E+003
      6.57921   4.65406929E+003
      6.57995   4.66761609E+003
      6.58069   4.68107317E+003
      6.58143   4.69443949E+003
      6.58216   4.70771399E+003
      6.58290   4.72089566E+003
      6.58364   4.73398344E+003
      6.58438   4.74697631E+003
      6.58512   4.75987326E+003
      6.58585   4.77267325E+003
      6.58659   4.78537528E+003
      6.58733   4.79797833E+003
      6.58807   4.81048141E+003
      6.58881   4.82288352E+003
      6.58954   4.83518366E+003
      6.59028   4.84738085E+003
      6.59102   4.85947411E+003
      6.59176   4.87146246E+003
      6.59250   4.88334494E+003
      6.59323   4.89512059E+003
      6.59397   4.90678845E+003
      6.59471   4.91834757E+003
      6.59545   4.92979702E+003
      6.59618   4.94113585E+003
      6.59692   4.95236315E+003
      6.59766   4.96347798E+003
      6.59840   4.97447945E+003
      6.59914   4.98536664E+003
      6.59987   4.99613866E+003
      6.60061   5.00679461E+003
      6.60135   5.01733362E+003
      6.60209   5.02775481E+003
      6.60283   5.03805732E+003
      6.60356   5.04824029E+003
      6.60430   5.05830286E+003
      6.60504   5.06824421E+003
      6.60578   5.07806350E+003
      6.60652   5.08775991E+003
      6.60725   5.09733261E+003
      6.60799   5.10678082E+003
      6.60873   5.11610373E+003
      6.60947   5.12530056E+003
      6.61021   5.13437053E+003
      6.61094   5.14331288E+003
      6.61168   5.15212684E+003
      6.61242   5.16081168E+003
      6.61316   5.16936665E+003
      6.61390   5.17779102E+003
      6.61463   5.18608408E+003
      6.61537   5.19424513E+003
      6.61611   5.20227346E+003
      6.61685   5.21016840E+003
      6.61759   5.21792926E+003
      6.61832   5.22555539E+003
      6.61906   5.23304613E+003
      6.61980   5.24040083E+003
      6.62054   5.24761887E+003
      6.62127   5.25469963E+003
      6.62201   5.26164250E+003
      6.62275   5.26844688E+003
      6.62349   5.27511219E+003
      6.62423   5.28163786E+003
      6.62496   5.28802332E+003
      6.62570   5.29426802E+003
      6.62644   5.30037143E+003
      6.62718   5.30633302E+003
      6.62792   5.31215228E+003
      6.62865   5.31782871E+003
      6.62939   5.32336181E+003
      6.63013   5.32875112E+003
      6.63087   5.33399617E+003
      6.63161   5.33909651E+003
      6.63234   5.34405169E+003
      6.63308   5.34886131E+003
      6.63382   5.35352493E+003
      6.63456   5.35804218E+003
      6.63530   5.36241265E+003
      6.63603   5.36663598E+003
      6.63677   5.37071181E+003
      6.63751   5.37463980E+003
      6.63825   5.37841960E+003
      6.63899   5.38205091E+003
      6.63972   5.38553341E+003
      6.64046   5.38886682E+003
      6.64120   5.39205085E+003
      6.64194   5.39508526E+003
      6.64268   5.39796977E+003
      6.64341   5.40070417E+003
      6.64415   5.40328822E+003
      6.64489   5.40572173E+003
      6.64563   5.40800449E+003
      6.64636   5.41013633E+003
      6.64710   5.41211708E+003
      6.64784   5.41394659E+003
      6.64858   5.41562474E+003
      6.64932   5.41715138E+003
      6.65005   5.41852643E+003
      6.65079   5.41974979E+003
      6.65153   5.42082137E+003
      6.65227   5.42174112E+003
      6.65301   5.42250898E+003
      6.65374   5.42312493E+003
      6.65448   5.42358895E+003
      6.65522   5.42390103E+003
      6.65596   5.42406118E+003
      6.65670   5.42406943E+003
      6.65743   5.42392582E+003
      6.65817   5.42363041E+003
      6.65891   5.42318327E+003
      6.65965   5.42258448E+003
      6.66039   5.42183414E+003
      6.66112   5.42093238E+003
      6.66186   5.41987931E+003
      6.66260   5.41867510E+003
      6.66334   5.41731990E+003
      6.66408   5.41581389E+003
      6.66481   5.41415726E+003
      6.66555   5.41235021E+003
      6.66629   5.41039298E+003
      6.66703   5.40828579E+003
      6.66777   5.40602891E+003
      6.66850   5.40362259E+003
      6.66924   5.40106713E+003
      6.66998   5.39836282E+003
      6.67072   5.39550998E+003
      6.67145   5.39250893E+003
      6.67219   5.38936003E+003
      6.67293   5.38606362E+003
      6.67367   5.38262009E+003
      6.67441   5.37902983E+003
      6.67514   5.37529324E+003
      6.67588   5.37141074E+003
      6.67662   5.36738277E+003
      6.67736   5.36320978E+003
      6.67810   5.35889224E+003
      6.67883   5.35443062E+003
      6.67957   5.34982543E+003
      6.68031   5.34507717E+003
      6.68105   5.34018637E+003
      6.68179   5.33515358E+003
      6.68252   5.32997935E+003
      6.68326   5.32466425E+003
      6.68400   5.31920887E+003
      6.68474   5.31361380E+003
      6.68548   5.30787968E+003
      6.68621   5.30200712E+003
      6.68695   5.29599677E+003
      6.68769   5.28984929E+003
      6.68843   5.28356537E+003
      6.68917   5.27714568E+003
      6.68990   5.27059093E+003
      6.69064   5.26390185E+003
      6.69138   5.25707916E+003
      6.69212   5.25012361E+003
      6.69286   5.24303596E+003
      6.69359   5.23581700E+003
      6.69433   5.22846751E+003
      6.69507   5.22098829E+003
      6.69581   5.21338016E+003
      6.69654   5.20564397E+003
      6.69728   5.19778055E+003
      6.69802   5.18979076E+003
      6.69876   5.18167548E+003
      6.69950   5.17343560E+003
      6.70023   5.16507202E+003
      6.70097   5.15658565E+003
      6.70171   5.14797743E+003
      6.70245   5.13924830E+003
      6.70319   5.13039921E+003
      6.70392   5.12143112E+003
      6.70466   5.11234504E+003
      6.70540   5.10314194E+003
      6.70614   5.09382284E+003
      6.70688   5.08438876E+003
      6.70761   5.07484074E+003
      6.70835   5.06517981E+003
      6.70909   5.05540705E+003
      6.70983   5.04552352E+003
      6.71057   5.03553030E+003
      6.71130   5.02542851E+003
      6.71204   5.01521923E+003
      6.71278   5.00490360E+003
      6.71352   4.99448275E+003
      6.71426   4.98395782E+003
      6.71499   4.97332997E+003
      6.71573   4.96260038E+003
      6.71647   4.95177022E+003
      6.71721   4.94084068E+003
      6.71795   4.92981296E+003
      6.71868   4.91868830E+003
      6.71942   4.90746790E+003
      6.72016   4.89615300E+003
      6.72090   4.88474486E+003
      6.72163   4.87324474E+003
      6.72237   4.86165389E+003
      6.72311   4.84997362E+003
      6.72385   4.83820519E+003
      6.72459   4.82634993E+003
      6.72532   4.81440913E+003
      6.72606   4.80238412E+003
      6.72680   4.79027623E+003
      6.72754   4.77808681E+003
      6.72828   4.76581720E+003
      6.72901   4.75346877E+003
      6.72975   4.74104288E+003
      6.73049   4.72854092E+003
      6.73123   4.71596428E+003
      6.73197   4.70331435E+003
      6.73270   4.69059254E+003
      6.73344   4.67780027E+003
      6.73418   4.66493896E+003
      6.73492   4.65201005E+003
      6.73566   4.63901497E+003
      6.73639   4.62595519E+003
      6.73713   4.61283215E+003
      6.73787   4.59964732E+003
      6.73861   4.58640218E+003
      6.73935   4.57309822E+003
      6.74008   4.55973691E+003
      6.74082   4.54631976E+003
      6.74156   4.53284827E+003
      6.74230   4.51932395E+003
      6.74304   4.50574833E+003
      6.74377   4.49212293E+003
      6.74451   4.47844928E+003
      6.74525   4.46472891E+003
      6.74599   4.45096339E+003
      6.74672   4.43715425E+003
      6.74746   4.42330307E+003
      6.74820   4.40941139E+003
      6.74894   4.39548080E+003
      6.74968   4.38151286E+003
      6.75041   4.36750917E+003
      6.75115   4.35347130E+003
      6.75189   4.33940086E+003
      6.75263   4.32529943E+003
      6.75337   4.31116863E+003
      6.75410   4.29701005E+003
      6.75484   4.28282532E+003
      6.75558   4.26861604E+003
      6.75632   4.25438385E+003
      6.75706   4.24013037E+003
      6.75779   4.22585722E+003
      6.75853   4.21156604E+003
      6.75927   4.19725848E+003
      6.76001   4.18293616E+003
      6.76075   4.16860075E+003
      6.76148   4.15425388E+003
      6.76222   4.13989720E+003
      6.76296   4.12553239E+003
      6.76370   4.11116108E+003
      6.76444   4.09678494E+003
      6.76517   4.08240565E+003
      6.76591   4.06802485E+003
      6.76665   4.05364423E+003
      6.76739   4.03926545E+003
      6.76813   4.02489018E+003
      6.76886   4.01052011E+003
      6.76960   3.99615690E+003
      6.77034   3.98180224E+003
      6.77108   3.96745780E+003
      6.77181   3.95312527E+003
      6.77255   3.93880633E+003
      6.77329   3.92450266E+003
      6.77403   3.91021594E+003
      6.77477   3.89594787E+003
      6.77550   3.88170013E+003
      6.77624   3.86747440E+003
      6.77698   3.85327238E+003
      6.77772   3.83909573E+003
      6.77846   3.82494617E+003
      6.77919   3.81082536E+003
      6.77993   3.79673500E+003
      6.78067   3.78267678E+003
      6.78141   3.76865237E+003
      6.78215   3.75466346E+003
      6.78288   3.74071174E+003
      6.78362   3.72679889E+003
      6.78436   3.71292659E+003
      6.78510   3.69909653E+003
      6.78584   3.68531037E+003
      6.78657   3.67156980E+003
      6.78731   3.65787650E+003
      6.78805   3.64423213E+003
      6.78879   3.63063837E+003
      6.78953   3.61709689E+003
      6.79026   3.60360936E+003
      6.79100   3.59017744E+003
      6.79174   3.57680279E+003
      6.79248   3.56348708E+003
      6.79322   3.55023196E+003
      6.79395   3.53703909E+003
      6.79469   3.52391011E+003
      6.79543   3.51084667E+003
      6.79617   3.49785043E+003
      6.79690   3.48492301E+003
      6.79764   3.47206606E+003
      6.79838   3.45928121E+003
      6.79912   3.44657009E+003
      6.79986   3.43393432E+003
      6.80059   3.42137553E+003
      6.80133   3.40889533E+003
      6.80207   3.39649534E+003
      6.80281   3.38417716E+003
      6.80355   3.37194239E+003
      6.80428   3.35979264E+003
      6.80502   3.34772950E+003
      6.80576   3.33575456E+003
      6.80650   3.32386940E+003
      6.80724   3.31207559E+003
      6.80797   3.30037471E+003
      6.80871   3.28876833E+003
      6.80945   3.27725801E+003
      6.81019   3.26584529E+003
      6.81093   3.25453174E+003
      6.81166   3.24331889E+003
      6.81240   3.23220828E+003
      6.81314   3.22120144E+003
      6.81388   3.21029990E+003
      6.81462   3.19950517E+003
      6.81535   3.18881876E+003
      6.81609   3.17824217E+003
      6.81683   3.16777690E+003
      6.81757   3.15742445E+003
      6.81831   3.14718629E+003
      6.81904   3.13706389E+003
      6.81978   3.12705874E+003
      6.82052   3.11717227E+003
      6.82126   3.10740596E+003
      6.82199   3.09776123E+003
      6.82273   3.08823953E+003
      6.82347   3.07884229E+003
      6.82421   3.06957093E+003
      6.82495   3.06042685E+003
      6.82568   3.05141147E+003
      6.82642   3.04252617E+003
      6.82716   3.03377234E+003
      6.82790   3.02515136E+003
      6.82864   3.01666460E+003
      6.82937   3.00831342E+003
      6.83011   3.00009917E+003
      6.83085   2.99202319E+003
      6.83159   2.98408682E+003
      6.83233   2.97629137E+003
      6.83306   2.96863815E+003
      6.83380   2.96112848E+003
      6.83454   2.95376365E+003
      6.83528   2.94654494E+003
      6.83602   2.93947362E+003
      6.83675   2.93255096E+003
      6.83749   2.92577822E+003
      6.83823   2.91915663E+003
      6.83897   2.91268743E+003
      6.83971   2.90637184E+003
      6.84044   2.90021108E+003
      6.84118   2.89420635E+003
      6.84192   2.88835883E+003
      6.84266   2.88266971E+003
      6.84340   2.87714016E+003
      6.84413   2.87177133E+003
      6.84487   2.86656437E+003
      6.84561   2.86152042E+003
      6.84635   2.85664060E+003
      6.84709   2.85192602E+003
      6.84782   2.84737778E+003
      6.84856   2.84299698E+003
      6.84930   2.83878469E+003
      6.85004   2.83474198E+003
      6.85077   2.83086989E+003
      6.85151   2.82716948E+003
      6.85225   2.82364177E+003
      6.85299   2.82028778E+003
      6.85373   2.81710851E+003
      6.85446   2.81410495E+003
      6.85520   2.81127809E+003
      6.85594   2.80862889E+003
      6.85668   2.80615831E+003
      6.85742   2.80386729E+003
      6.85815   2.80175676E+003
      6.85889   2.79982762E+003
      6.85963   2.79808080E+003
      6.86037   2.79651716E+003
      6.86111   2.79513760E+003
      6.86184   2.79394298E+003
      6.86258   2.79293413E+003
      6.86332   2.79211191E+003
      6.86406   2.79147713E+003
      6.86480   2.79103059E+003
      6.86553   2.79077310E+003
      6.86627   2.79070544E+003
      6.86701   2.79082837E+003
      6.86775   2.79114264E+003
      6.86849   2.79164899E+003
      6.86922   2.79234816E+003
      6.86996   2.79324084E+003
      6.87070   2.79432773E+003
      6.87144   2.79560952E+003
      6.87218   2.79708686E+003
      6.87291   2.79876042E+003
      6.87365   2.80063083E+003
      6.87439   2.80269872E+003
      6.87513   2.80496468E+003
      6.87586   2.80742931E+003
      6.87660   2.81009319E+003
      6.87734   2.81295688E+003
      6.87808   2.81602094E+003
      6.87882   2.81928588E+003
      6.87955   2.82275223E+003
      6.88029   2.82642048E+003
      6.88103   2.83029113E+003
      6.88177   2.83436465E+003
      6.88251   2.83864148E+003
      6.88324   2.84312206E+003
      6.88398   2.84780682E+003
      6.88472   2.85269617E+003
      6.88546   2.85779049E+003
      6.88620   2.86309017E+003
      6.88693   2.86859555E+003
      6.88767   2.87430698E+003
      6.88841   2.88022479E+003
      6.88915   2.88634928E+003
      6.88989   2.89268076E+003
      6.89062   2.89921949E+003
      6.89136   2.90596574E+003
      6.89210   2.91291974E+003
      6.89284   2.92008174E+003
      6.89358   2.92745193E+003
      6.89431   2.93503052E+003
      6.89505   2.94281767E+003
      6.89579   2.95081356E+003
      6.89653   2.95901831E+003
      6.89727   2.96743206E+003
      6.89800   2.97605491E+003
      6.89874   2.98488696E+003
      6.89948   2.99392827E+003
      6.90022   3.00317892E+003
      6.90095   3.01263893E+003
      6.90169   3.02230833E+003
      6.90243   3.03218712E+003
      6.90317   3.04227529E+003
      6.90391   3.05257281E+003
      6.90464   3.06307963E+003
      6.90538   3.07379568E+003
      6.90612   3.08472088E+003
      6.90686   3.09585513E+003
      6.90760   3.10719832E+003
      6.90833   3.11875029E+003
      6.90907   3.13051090E+003
      6.90981   3.14247997E+003
      6.91055   3.15465732E+003
      6.91129   3.16704273E+003
      6.91202   3.17963597E+003
      6.91276   3.19243680E+003
      6.91350   3.20544496E+003
      6.91424   3.21866016E+003
      6.91498   3.23208210E+003
      6.91571   3.24571047E+003
      6.91645   3.25954492E+003
      6.91719   3.27358510E+003
      6.91793   3.28783063E+003
      6.91867   3.30228113E+003
      6.91940   3.31693617E+003
      6.92014   3.33179534E+003
      6.92088   3.34685818E+003
      6.92162   3.36212422E+003
      6.92236   3.37759299E+003
      6.92309   3.39326396E+003
      6.92383   3.40913663E+003
      6.92457   3.42521044E+003
      6.92531   3.44148485E+003
      6.92604   3.45795926E+003
      6.92678   3.47463308E+003
      6.92752   3.49150569E+003
      6.92826   3.50857646E+003
      6.92900   3.52584472E+003
      6.92973   3.54330982E+003
      6.93047   3.56097104E+003
      6.93121   3.57882769E+003
      6.93195   3.59687903E+003
      6.93269   3.61512430E+003
      6.93342   3.63356275E+003
      6.93416   3.65219358E+003
      6.93490   3.67101599E+003
      6.93564   3.69002915E+003
      6.93638   3.70923222E+003
      6.93711   3.72862433E+003
      6.93785   3.74820460E+003
      6.93859   3.76797213E+003
      6.93933   3.78792599E+003
      6.94007   3.80806525E+003
      6.94080   3.82838895E+003
      6.94154   3.84889612E+003
      6.94228   3.86958575E+003
      6.94302   3.89045683E+003
      6.94376   3.91150832E+003
      6.94449   3.93273917E+003
      6.94523   3.95414832E+003
      6.94597   3.97573466E+003
      6.94671   3.99749710E+003
      6.94745   4.01943449E+003
      6.94818   4.04154570E+003
      6.94892   4.06382955E+003
      6.94966   4.08628486E+003
      6.95040   4.10891043E+003
      6.95113   4.13170504E+003
      6.95187   4.15466744E+003
      6.95261   4.17779638E+003
      6.95335   4.20109057E+003
      6.95409   4.22454872E+003
      6.95482   4.24816952E+003
      6.95556   4.27195163E+003
      6.95630   4.29589369E+003
      6.95704   4.31999435E+003
      6.95778   4.34425220E+003
      6.95851   4.36866585E+003
      6.95925   4.39323387E+003
      6.95999   4.41795481E+003
      6.96073   4.44282722E+003
      6.96147   4.46784961E+003
      6.96220   4.49302049E+003
      6.96294   4.51833835E+003
      6.96368   4.54380164E+003
      6.96442   4.56940882E+003
      6.96516   4.59515833E+003
      6.96589   4.62104857E+003
      6.96663   4.64707794E+003
      6.96737   4.67324483E+003
      6.96811   4.69954759E+003
      6.96885   4.72598457E+003
      6.96958   4.75255410E+003
      6.97032   4.77925449E+003
      6.97106   4.80608403E+003
      6.97180   4.83304100E+003
      6.97254   4.86012366E+003
      6.97327   4.88733026E+003
      6.97401   4.91465901E+003
      6.97475   4.94210813E+003
      6.97549   4.96967582E+003
      6.97622   4.99736025E+003
      6.97696   5.02515959E+003
      6.97770   5.05307197E+003
      6.97844   5.08109554E+003
      6.97918   5.10922840E+003
      6.97991   5.13746865E+003
      6.98065   5.16581438E+003
      6.98139   5.19426365E+003
      6.98213   5.22281451E+003
      6.98287   5.25146501E+003
      6.98360   5.28021316E+003
      6.98434   5.30905698E+003
      6.98508   5.33799445E+003
      6.98582   5.36702355E+003
      6.98656   5.39614225E+003
      6.98729   5.42534849E+003
      6.98803   5.45464021E+003
      6.98877   5.48401534E+003
      6.98951   5.51347177E+003
      6.99025   5.54300740E+003
      6.99098   5.57262012E+003
      6.99172   5.60230778E+003
      6.99246   5.63206825E+003
      6.99320   5.66189936E+003
      6.99394   5.69179894E+003
      6.99467   5.72176480E+003
      6.99541   5.75179475E+003
      6.99615   5.78188658E+003
      6.99689   5.81203806E+003
      6.99763   5.84224696E+003
      6.99836   5.87251104E+003
      6.99910   5.90282804E+003
      6.99984   5.93319569E+003
      7.00058   5.96361170E+003
      7.00131   5.99407379E+003
      7.00205   6.02457966E+003
      7.00279   6.05512699E+003
      7.00353   6.08571346E+003
      7.00427   6.11633674E+003
      7.00500   6.14699447E+003
      7.00574   6.17768432E+003
      7.00648   6.20840392E+003
      7.00722   6.23915089E+003
      7.00796   6.26992285E+003
      7.00869   6.30071742E+003
      7.00943   6.33153219E+003
      7.01017   6.36236476E+003
      7.01091   6.39321271E+003
      7.01165   6.42407361E+003
      7.01238   6.45494504E+003
      7.01312   6.48582455E+003
      7.01386   6.51670970E+003
      7.01460   6.54759804E+003
      7.01534   6.57848710E+003
      7.01607   6.60937441E+003
      7.01681   6.64025751E+003
      7.01755   6.67113390E+003
      7.01829   6.70200111E+003
      7.01903   6.73285664E+003
      7.01976   6.76369800E+003
      7.02050   6.79452268E+003
      7.02124   6.82532817E+003
      7.02198   6.85611197E+003
      7.02272   6.88687155E+003
      7.02345   6.91760440E+003
      7.02419   6.94830798E+003
      7.02493   6.97897977E+003
      7.02567   7.00961724E+003
      7.02640   7.04021786E+003
      7.02714   7.07077908E+003
      7.02788   7.10129836E+003
      7.02862   7.13177316E+003
      7.02936   7.16220094E+003
      7.03009   7.19257914E+003
      7.03083   7.22290522E+003
      7.03157   7.25317664E+003
      7.03231   7.28339083E+003
      7.03305   7.31354524E+003
      7.03378   7.34363733E+003
      7.03452   7.37366454E+003
      7.03526   7.40362432E+003
      7.03600   7.43351411E+003
      7.03674   7.46333137E+003
      7.03747   7.49307355E+003
      7.03821   7.52273809E+003
      7.03895   7.55232245E+003
      7.03969   7.58182408E+003
      7.04043   7.61124044E+003
      7.04116   7.64056898E+003
      7.04190   7.66980718E+003
      7.04264   7.69895249E+003
      7.04338   7.72800237E+003
      7.04412   7.75695431E+003
      7.04485   7.78580578E+003
      7.04559   7.81455424E+003
      7.04633   7.84319720E+003
      7.04707   7.87173213E+003
      7.04781   7.90015653E+003
      7.04854   7.92846790E+003
      7.04928   7.95666373E+003
      7.05002   7.98474155E+003
      7.05076   8.01269886E+003
      7.05149   8.04053319E+003
      7.05223   8.06824207E+003
      7.05297   8.09582304E+003
      7.05371   8.12327362E+003
      7.05445   8.15059139E+003
      7.05518   8.17777389E+003
      7.05592   8.20481870E+003
      7.05666   8.23172339E+003
      7.05740   8.25848554E+003
      7.05814   8.28510275E+003
      7.05887   8.31157262E+003
      7.05961   8.33789276E+003
      7.06035   8.36406081E+003
      7.06109   8.39007438E+003
      7.06183   8.41593112E+003
      7.06256   8.44162869E+003
      7.06330   8.46716475E+003
      7.06404   8.49253699E+003
      7.06478   8.51774308E+003
      7.06552   8.54278073E+003
      7.06625   8.56764766E+003
      7.06699   8.59234158E+003
      7.06773   8.61686024E+003
      7.06847   8.64120139E+003
      7.06921   8.66536280E+003
      7.06994   8.68934224E+003
      7.07068   8.71313751E+003
      7.07142   8.73674641E+003
      7.07216   8.76016677E+003
      7.07290   8.78339642E+003
      7.07363   8.80643321E+003
      7.07437   8.82927502E+003
      7.07511   8.85191973E+003
      7.07585   8.87436523E+003
      7.07658   8.89660944E+003
      7.07732   8.91865029E+003
      7.07806   8.94048574E+003
      7.07880   8.96211374E+003
      7.07954   8.98353228E+003
      7.08027   9.00473936E+003
      7.08101   9.02573301E+003
      7.08175   9.04651125E+003
      7.08249   9.06707214E+003
      7.08323   9.08741376E+003
      7.08396   9.10753419E+003
      7.08470   9.12743156E+003
      7.08544   9.14710398E+003
      7.08618   9.16654962E+003
      7.08692   9.18576664E+003
      7.08765   9.20475324E+003
      7.08839   9.22350762E+003
      7.08913   9.24202801E+003
      7.08987   9.26031268E+003
      7.09061   9.27835989E+003
      7.09134   9.29616794E+003
      7.09208   9.31373514E+003
      7.09282   9.33105984E+003
      7.09356   9.34814039E+003
      7.09430   9.36497518E+003
      7.09503   9.38156261E+003
      7.09577   9.39790112E+003
      7.09651   9.41398914E+003
      7.09725   9.42982516E+003
      7.09799   9.44540767E+003
      7.09872   9.46073520E+003
      7.09946   9.47580628E+003
      7.10020   9.49061949E+003
      7.10094   9.50517341E+003
      7.10168   9.51946668E+003
      7.10241   9.53349792E+003
      7.10315   9.54726580E+003
      7.10389   9.56076902E+003
      7.10463   9.57400629E+003
      7.10536   9.58697635E+003
      7.10610   9.59967796E+003
      7.10684   9.61210993E+003
      7.10758   9.62427107E+003
      7.10832   9.63616022E+003
      7.10905   9.64777625E+003
      7.10979   9.65911806E+003
      7.11053   9.67018457E+003
      7.11127   9.68097474E+003
      7.11201   9.69148753E+003
      7.11274   9.70172195E+003
      7.11348   9.71167703E+003
      7.11422   9.72135183E+003
      7.11496   9.73074543E+003
      7.11570   9.73985695E+003
      7.11643   9.74868552E+003
      7.11717   9.75723031E+003
      7.11791   9.76549051E+003
      7.11865   9.77346535E+003
      7.11939   9.78115408E+003
      7.12012   9.78855598E+003
      7.12086   9.79567035E+003
      7.12160   9.80249653E+003
      7.12234   9.80903388E+003
      7.12308   9.81528180E+003
      7.12381   9.82123971E+003
      7.12455   9.82690705E+003
      7.12529   9.83228331E+003
      7.12603   9.83736799E+003
      7.12677   9.84216063E+003
      7.12750   9.84666079E+003
      7.12824   9.85086808E+003
      7.12898   9.85478210E+003
      7.12972   9.85840252E+003
      7.13045   9.86172902E+003
      7.13119   9.86476130E+003
      7.13193   9.86749912E+003
      7.13267   9.86994223E+003
      7.13341   9.87209045E+003
      7.13414   9.87394359E+003
      7.13488   9.87550152E+003
      7.13562   9.87676412E+003
      7.13636   9.87773132E+003
      7.13710   9.87840305E+003
      7.13783   9.87877931E+003
      7.13857   9.87886008E+003
      7.13931   9.87864542E+003
      7.14005   9.87813538E+003
      7.14079   9.87733006E+003
      7.14152   9.87622959E+003
      7.14226   9.87483412E+003
      7.14300   9.87314384E+003
      7.14374   9.87115895E+003
      7.14448   9.86887971E+003
      7.14521   9.86630638E+003
      7.14595   9.86343927E+003
      7.14669   9.86027871E+003
      7.14743   9.85682506E+003
      7.14817   9.85307872E+003
      7.14890   9.84904010E+003
      7.14964   9.84470965E+003
      7.15038   9.84008785E+003
      7.15112   9.83517521E+003
      7.15186   9.82997227E+003
      7.15259   9.82447959E+003
      7.15333   9.81869777E+003
      7.15407   9.81262744E+003
      7.15481   9.80626924E+003
      7.15554   9.79962386E+003
      7.15628   9.79269201E+003
      7.15702   9.78547443E+003
      7.15776   9.77797189E+003
      7.15850   9.77018518E+003
      7.15923   9.76211513E+003
      7.15997   9.75376260E+003
      7.16071   9.74512846E+003
      7.16145   9.73621362E+003
      7.16219   9.72701902E+003
      7.16292   9.71754563E+003
      7.16366   9.70779443E+003
      7.16440   9.69776646E+003
      7.16514   9.68746275E+003
      7.16588   9.67688439E+003
      7.16661   9.66603248E+003
      7.16735   9.65490813E+003
      7.16809   9.64351253E+003
      7.16883   9.63184684E+003
      7.16957   9.61991227E+003
      7.17030   9.60771007E+003
      7.17104   9.59524149E+003
      7.17178   9.58250783E+003
      7.17252   9.56951040E+003
      7.17326   9.55625055E+003
      7.17399   9.54272963E+003
      7.17473   9.52894904E+003
      7.17547   9.51491021E+003
      7.17621   9.50061457E+003
      7.17695   9.48606359E+003
      7.17768   9.47125876E+003
      7.17842   9.45620161E+003
      7.17916   9.44089367E+003
      7.17990   9.42533652E+003
      7.18063   9.40953173E+003
      7.18137   9.39348094E+003
      7.18211   9.37718577E+003
      7.18285   9.36064789E+003
      7.18359   9.34386899E+003
      7.18432   9.32685077E+003
      7.18506   9.30959496E+003
      7.18580   9.29210333E+003
      7.18654   9.27437764E+003
      7.18728   9.25641969E+003
      7.18801   9.23823132E+003
      7.18875   9.21981435E+003
      7.18949   9.20117066E+003
      7.19023   9.18230214E+003
      7.19097   9.16321068E+003
      7.19170   9.14389822E+003
      7.19244   9.12436672E+003
      7.19318   9.10461813E+003
      7.19392   9.08465445E+003
      7.19466   9.06447769E+003
      7.19539   9.04408989E+003
      7.19613   9.02349309E+003
      7.19687   9.00268936E+003
      7.19761   8.98168079E+003
      7.19835   8.96046949E+003
      7.19908   8.93905758E+003
      7.19982   8.91744722E+003
      7.20056   8.89564056E+003
      7.20130   8.87363978E+003
      7.20204   8.85144709E+003
      7.20277   8.82906470E+003
      7.20351   8.80649485E+003
      7.20425   8.78373978E+003
      7.20499   8.76080176E+003
      7.20572   8.73768309E+003
      7.20646   8.71438604E+003
      7.20720   8.69091296E+003
      7.20794   8.66726615E+003
      7.20868   8.64344799E+003
      7.20941   8.61946081E+003
      7.21015   8.59530701E+003
      7.21089   8.57098898E+003
      7.21163   8.54650912E+003
      7.21237   8.52186985E+003
      7.21310   8.49707361E+003
      7.21384   8.47212284E+003
      7.21458   8.44702002E+003
      7.21532   8.42176761E+003
      7.21606   8.39636810E+003
      7.21679   8.37082400E+003
      7.21753   8.34513781E+003
      7.21827   8.31931206E+003
      7.21901   8.29334929E+003
      7.21975   8.26725205E+003
      7.22048   8.24102289E+003
      7.22122   8.21466439E+003
      7.22196   8.18817913E+003
      7.22270   8.16156971E+003
      7.22344   8.13483871E+003
      7.22417   8.10798877E+003
      7.22491   8.08102249E+003
      7.22565   8.05394251E+003
      7.22639   8.02675148E+003
      7.22713   7.99945204E+003
      7.22786   7.97204685E+003
      7.22860   7.94453857E+003
      7.22934   7.91692989E+003
      7.23008   7.88922349E+003
      7.23081   7.86142206E+003
      7.23155   7.83352829E+003
      7.23229   7.80554489E+003
      7.23303   7.77747458E+003
      7.23377   7.74932008E+003
      7.23450   7.72108410E+003
      7.23524   7.69276939E+003
      7.23598   7.66437867E+003
      7.23672   7.63591470E+003
      7.23746   7.60738022E+003
      7.23819   7.57877798E+003
      7.23893   7.55011075E+003
      7.23967   7.52138128E+003
      7.24041   7.49259235E+003
      7.24115   7.46374673E+003
      7.24188   7.43484719E+003
      7.24262   7.40589652E+003
      7.24336   7.37689749E+003
      7.24410   7.34785289E+003
      7.24484   7.31876552E+003
      7.24557   7.28963816E+003
      7.24631   7.26047361E+003
      7.24705   7.23127466E+003
      7.24779   7.20204412E+003
      7.24853   7.17278478E+003
      7.24926   7.14349945E+003
      7.25000   7.11419093E+003
      7.25074   7.08486203E+003
      7.25148   7.05551554E+003
      7.25222   7.02615429E+003
      7.25295   6.99678106E+003
      7.25369   6.96739868E+003
      7.25443   6.93800995E+003
      7.25517   6.90861767E+003
      7.25590   6.87922464E+003
      7.25664   6.84983369E+003
      7.25738   6.82044761E+003
      7.25812   6.79106920E+003
      7.25886   6.76170127E+003
      7.25959   6.73234661E+003
      7.26033   6.70300804E+003
      7.26107   6.67368834E+003
      7.26181   6.64439031E+003
      7.26255   6.61511674E+003
      7.26328   6.58587043E+003
      7.26402   6.55665417E+003
      7.26476   6.52747073E+003
      7.26550   6.49832290E+003
      7.26624   6.46921346E+003
      7.26697   6.44014519E+003
      7.26771   6.41112085E+003
      7.26845   6.38214322E+003
      7.26919   6.35321506E+003
      7.26993   6.32433913E+003
      7.27066   6.29551819E+003
      7.27140   6.26675498E+003
      7.27214   6.23805226E+003
      7.27288   6.20941277E+003
      7.27362   6.18083924E+003
      7.27435   6.15233441E+003
      7.27509   6.12390100E+003
      7.27583   6.09554174E+003
      7.27657   6.06725933E+003
      7.27731   6.03905650E+003
      7.27804   6.01093594E+003
      7.27878   5.98290035E+003
      7.27952   5.95495243E+003
      7.28026   5.92709485E+003
      7.28099   5.89933031E+003
      7.28173   5.87166146E+003
      7.28247   5.84409098E+003
      7.28321   5.81662152E+003
      7.28395   5.78925574E+003
      7.28468   5.76199628E+003
      7.28542   5.73484578E+003
      7.28616   5.70780686E+003
      7.28690   5.68088215E+003
      7.28764   5.65407426E+003
      7.28837   5.62738581E+003
      7.28911   5.60081938E+003
      7.28985   5.57437757E+003
      7.29059   5.54806296E+003
      7.29133   5.52187812E+003
      7.29206   5.49582563E+003
      7.29280   5.46990803E+003
      7.29354   5.44412787E+003
      7.29428   5.41848770E+003
      7.29502   5.39299005E+003
      7.29575   5.36763743E+003
      7.29649   5.34243236E+003
      7.29723   5.31737735E+003
      7.29797   5.29247489E+003
      7.29871   5.26772745E+003
      7.29944   5.24313753E+003
      7.30018   5.21870758E+003
      7.30092   5.19444006E+003
      7.30166   5.17033743E+003
      7.30240   5.14640210E+003
      7.30313   5.12263652E+003
      7.30387   5.09904310E+003
      7.30461   5.07562424E+003
      7.30535   5.05238235E+003
      7.30608   5.02931981E+003
      7.30682   5.00643899E+003
      7.30756   4.98374227E+003
      7.30830   4.96123200E+003
      7.30904   4.93891052E+003
      7.30977   4.91678017E+003
      7.31051   4.89484327E+003
      7.31125   4.87310214E+003
      7.31199   4.85155908E+003
      7.31273   4.83021637E+003
      7.31346   4.80907631E+003
      7.31420   4.78814117E+003
      7.31494   4.76741319E+003
      7.31568   4.74689463E+003
      7.31642   4.72658772E+003
      7.31715   4.70649470E+003
      7.31789   4.68661777E+003
      7.31863   4.66695914E+003
      7.31937   4.64752100E+003
      7.32011   4.62830553E+003
      7.32084   4.60931490E+003
      7.32158   4.59055126E+003
      7.32232   4.57201677E+003
      7.32306   4.55371355E+003
      7.32380   4.53564373E+003
      7.32453   4.51780942E+003
      7.32527   4.50021271E+003
      7.32601   4.48285571E+003
      7.32675   4.46574047E+003
      7.32749   4.44886907E+003
      7.32822   4.43224355E+003
      7.32896   4.41586596E+003
      7.32970   4.39973832E+003
      7.33044   4.38386265E+003
      7.33117   4.36824096E+003
      7.33191   4.35287522E+003
      7.33265   4.33776743E+003
      7.33339   4.32291955E+003
      7.33413   4.30833354E+003
      7.33486   4.29401133E+003
      7.33560   4.27995486E+003
      7.33634   4.26616604E+003
      7.33708   4.25264678E+003
      7.33782   4.23939898E+003
      7.33855   4.22642451E+003
      7.33929   4.21372524E+003
      7.34003   4.20130303E+003
      7.34077   4.18915971E+003
      7.34151   4.17729713E+003
      7.34224   4.16571709E+003
      7.34298   4.15442141E+003
      7.34372   4.14341187E+003
      7.34446   4.13269025E+003
      7.34520   4.12225832E+003
      7.34593   4.11211783E+003
      7.34667   4.10227053E+003
      7.34741   4.09271814E+003
      7.34815   4.08346237E+003
      7.34889   4.07450493E+003
      7.34962   4.06584750E+003
      7.35036   4.05749177E+003
      7.35110   4.04943939E+003
      7.35184   4.04169201E+003
      7.35258   4.03425128E+003
      7.35331   4.02711880E+003
      7.35405   4.02029619E+003
      7.35479   4.01378505E+003
      7.35553   4.00758696E+003
      7.35626   4.00170348E+003
      7.35700   3.99613618E+003
      7.35774   3.99088659E+003
      7.35848   3.98595625E+003
      7.35922   3.98134667E+003
      7.35995   3.97705934E+003
      7.36069   3.97309576E+003
      7.36143   3.96945740E+003
      7.36217   3.96614572E+003
      7.36291   3.96316217E+003
      7.36364   3.96050817E+003
      7.36438   3.95818515E+003
      7.36512   3.95619450E+003
      7.36586   3.95453763E+003
      7.36660   3.95321589E+003
      7.36733   3.95223066E+003
      7.36807   3.95158328E+003
      7.36881   3.95127508E+003
      7.36955   3.95130738E+003
      7.37029   3.95168149E+003
      7.37102   3.95239868E+003
      7.37176   3.95346024E+003
      7.37250   3.95486743E+003
      7.37324   3.95662149E+003
      7.37398   3.95872364E+003
      7.37471   3.96117511E+003
      7.37545   3.96397710E+003
      7.37619   3.96713078E+003
      7.37693   3.97063732E+003
      7.37767   3.97449789E+003
      7.37840   3.97871361E+003
      7.37914   3.98328562E+003
      7.37988   3.98821502E+003
      7.38062   3.99350290E+003
      7.38136   3.99915033E+003
      7.38209   4.00515839E+003
      7.38283   4.01152811E+003
      7.38357   4.01826052E+003
      7.38431   4.02535663E+003
      7.38504   4.03281745E+003
      7.38578   4.04064394E+003
      7.38652   4.04883708E+003
      7.38726   4.05739781E+003
      7.38800   4.06632707E+003
      7.38873   4.07562576E+003
      7.38947   4.08529478E+003
      7.39021   4.09533502E+003
      7.39095   4.10574734E+003
      7.39169   4.11653258E+003
      7.39242   4.12769157E+003
      7.39316   4.13922512E+003
      7.39390   4.15113404E+003
      7.39464   4.16341909E+003
      7.39538   4.17608103E+003
      7.39611   4.18912061E+003
      7.39685   4.20253855E+003
      7.39759   4.21633555E+003
      7.39833   4.23051230E+003
      7.39907   4.24506947E+003
      7.39980   4.26000770E+003
      7.40054   4.27532764E+003
      7.40128   4.29102989E+003
      7.40202   4.30711505E+003
      7.40276   4.32358369E+003
      7.40349   4.34043637E+003
      7.40423   4.35767362E+003
      7.40497   4.37529596E+003
      7.40571   4.39330389E+003
      7.40645   4.41169789E+003
      7.40718   4.43047842E+003
      7.40792   4.44964590E+003
      7.40866   4.46920077E+003
      7.40940   4.48914342E+003
      7.41013   4.50947422E+003
      7.41087   4.53019354E+003
      7.41161   4.55130170E+003
      7.41235   4.57279903E+003
      7.41309   4.59468581E+003
      7.41382   4.61696233E+003
      7.41456   4.63962882E+003
      7.41530   4.66268553E+003
      7.41604   4.68613266E+003
      7.41678   4.70997039E+003
      7.41751   4.73419889E+003
      7.41825   4.75881830E+003
      7.41899   4.78382875E+003
      7.41973   4.80923033E+003
      7.42047   4.83502311E+003
      7.42120   4.86120714E+003
      7.42194   4.88778246E+003
      7.42268   4.91474907E+003
      7.42342   4.94210695E+003
      7.42416   4.96985606E+003
      7.42489   4.99799634E+003
      7.42563   5.02652769E+003
      7.42637   5.05545000E+003
      7.42711   5.08476315E+003
      7.42785   5.11446696E+003
      7.42858   5.14456124E+003
      7.42932   5.17504580E+003
      7.43006   5.20592038E+003
      7.43080   5.23718474E+003
      7.43154   5.26883858E+003
      7.43227   5.30088160E+003
      7.43301   5.33331345E+003
      7.43375   5.36613377E+003
      7.43449   5.39934218E+003
      7.43522   5.43293826E+003
      7.43596   5.46692157E+003
      7.43670   5.50129163E+003
      7.43744   5.53604796E+003
      7.43818   5.57119003E+003
      7.43891   5.60671730E+003
      7.43965   5.64262919E+003
      7.44039   5.67892509E+003
      7.44113   5.71560437E+003
      7.44187   5.75266639E+003
      7.44260   5.79011044E+003
      7.44334   5.82793582E+003
      7.44408   5.86614178E+003
      7.44482   5.90472755E+003
      7.44556   5.94369234E+003
      7.44629   5.98303530E+003
      7.44703   6.02275560E+003
      7.44777   6.06285233E+003
      7.44851   6.10332458E+003
      7.44925   6.14417142E+003
      7.44998   6.18539185E+003
      7.45072   6.22698489E+003
      7.45146   6.26894949E+003
      7.45220   6.31128459E+003
      7.45294   6.35398909E+003
      7.45367   6.39706187E+003
      7.45441   6.44050178E+003
      7.45515   6.48430762E+003
      7.45589   6.52847818E+003
      7.45663   6.57301220E+003
      7.45736   6.61790843E+003
      7.45810   6.66316552E+003
      7.45884   6.70878216E+003
      7.45958   6.75475696E+003
      7.46031   6.80108852E+003
      7.46105   6.84777540E+003
      7.46179   6.89481612E+003
      7.46253   6.94220920E+003
      7.46327   6.98995309E+003
      7.46400   7.03804622E+003
      7.46474   7.08648701E+003
      7.46548   7.13527381E+003
      7.46622   7.18440496E+003
      7.46696   7.23387877E+003
      7.46769   7.28369350E+003
      7.46843   7.33384739E+003
      7.46917   7.38433864E+003
      7.46991   7.43516543E+003
      7.47065   7.48632589E+003
      7.47138   7.53781812E+003
      7.47212   7.58964019E+003
      7.47286   7.64179015E+003
      7.47360   7.69426598E+003
      7.47434   7.74706565E+003
      7.47507   7.80018711E+003
      7.47581   7.85362825E+003
      7.47655   7.90738694E+003
      7.47729   7.96146100E+003
      7.47803   8.01584824E+003
      7.47876   8.07054642E+003
      7.47950   8.12555326E+003
      7.48024   8.18086646E+003
      7.48098   8.23648368E+003
      7.48172   8.29240255E+003
      7.48245   8.34862065E+003
      7.48319   8.40513555E+003
      7.48393   8.46194475E+003
      7.48467   8.51904576E+003
      7.48540   8.57643601E+003
      7.48614   8.63411293E+003
      7.48688   8.69207390E+003
      7.48762   8.75031627E+003
      7.48836   8.80883734E+003
      7.48909   8.86763441E+003
      7.48983   8.92670470E+003
      7.49057   8.98604544E+003
      7.49131   9.04565379E+003
      7.49205   9.10552689E+003
      7.49278   9.16566184E+003
      7.49352   9.22605573E+003
      7.49426   9.28670557E+003
      7.49500   9.34760838E+003
      7.49574   9.40876111E+003
      7.49647   9.47016071E+003
      7.49721   9.53180406E+003
      7.49795   9.59368803E+003
      7.49869   9.65580945E+003
      7.49943   9.71816511E+003
      7.50016   9.78075178E+003
      7.50090   9.84356618E+003
      7.50164   9.90660499E+003
      7.50238   9.96986489E+003
      7.50312   1.00333425E+004
      7.50385   1.00970344E+004
      7.50459   1.01609371E+004
      7.50533   1.02250473E+004
      7.50607   1.02893613E+004
      7.50681   1.03538756E+004
      7.50754   1.04185866E+004
      7.50828   1.04834908E+004
      7.50902   1.05485846E+004
      7.50976   1.06138641E+004
      7.51049   1.06793258E+004
      7.51123   1.07449658E+004
      7.51197   1.08107804E+004
      7.51271   1.08767659E+004
      7.51345   1.09429184E+004
      7.51418   1.10092339E+004
      7.51492   1.10757087E+004
      7.51566   1.11423387E+004
      7.51640   1.12091201E+004
      7.51714   1.12760488E+004
      7.51787   1.13431209E+004
      7.51861   1.14103322E+004
      7.51935   1.14776787E+004
      7.52009   1.15451563E+004
      7.52083   1.16127608E+004
      7.52156   1.16804882E+004
      7.52230   1.17483341E+004
      7.52304   1.18162943E+004
      7.52378   1.18843646E+004
      7.52452   1.19525408E+004
      7.52525   1.20208185E+004
      7.52599   1.20891933E+004
      7.52673   1.21576610E+004
      7.52747   1.22262170E+004
      7.52821   1.22948571E+004
      7.52894   1.23635767E+004
      7.52968   1.24323714E+004
      7.53042   1.25012367E+004
      7.53116   1.25701681E+004
      7.53190   1.26391610E+004
      7.53263   1.27082108E+004
      7.53337   1.27773130E+004
      7.53411   1.28464630E+004
      7.53485   1.29156560E+004
      7.53558   1.29848875E+004
      7.53632   1.30541527E+004
      7.53706   1.31234470E+004
      7.53780   1.31927656E+004
      7.53854   1.32621037E+004
      7.53927   1.33314566E+004
      7.54001   1.34008196E+004
      7.54075   1.34701876E+004
      7.54149   1.35395561E+004
      7.54223   1.36089200E+004
      7.54296   1.36782745E+004
      7.54370   1.37476147E+004
      7.54444   1.38169358E+004
      7.54518   1.38862328E+004
      7.54592   1.39555007E+004
      7.54665   1.40247345E+004
      7.54739   1.40939294E+004
      7.54813   1.41630804E+004
      7.54887   1.42321823E+004
      7.54961   1.43012302E+004
      7.55034   1.43702191E+004
      7.55108   1.44391439E+004
      7.55182   1.45079995E+004
      7.55256   1.45767809E+004
      7.55330   1.46454830E+004
      7.55403   1.47141007E+004
      7.55477   1.47826289E+004
      7.55551   1.48510624E+004
      7.55625   1.49193961E+004
      7.55699   1.49876249E+004
      7.55772   1.50557437E+004
      7.55846   1.51237472E+004
      7.55920   1.51916304E+004
      7.55994   1.52593880E+004
      7.56067   1.53270149E+004
      7.56141   1.53945059E+004
      7.56215   1.54618558E+004
      7.56289   1.55290593E+004
      7.56363   1.55961114E+004
      7.56436   1.56630068E+004
      7.56510   1.57297403E+004
      7.56584   1.57963066E+004
      7.56658   1.58627007E+004
      7.56732   1.59289172E+004
      7.56805   1.59949510E+004
      7.56879   1.60607968E+004
      7.56953   1.61264494E+004
      7.57027   1.61919037E+004
      7.57101   1.62571543E+004
      7.57174   1.63221962E+004
      7.57248   1.63870241E+004
      7.57322   1.64516328E+004
      7.57396   1.65160171E+004
      7.57470   1.65801718E+004
      7.57543   1.66440917E+004
      7.57617   1.67077717E+004
      7.57691   1.67712066E+004
      7.57765   1.68343912E+004
      7.57839   1.68973203E+004
      7.57912   1.69599888E+004
      7.57986   1.70223917E+004
      7.58060   1.70845236E+004
      7.58134   1.71463796E+004
      7.58208   1.72079545E+004
      7.58281   1.72692432E+004
      7.58355   1.73302407E+004
      7.58429   1.73909418E+004
      7.58503   1.74513416E+004
      7.58576   1.75114349E+004
      7.58650   1.75712167E+004
      7.58724   1.76306821E+004
      7.58798   1.76898261E+004
      7.58872   1.77486436E+004
      7.58945   1.78071298E+004
      7.59019   1.78652796E+004
      7.59093   1.79230881E+004
      7.59167   1.79805505E+004
      7.59241   1.80376619E+004
      7.59314   1.80944174E+004
      7.59388   1.81508121E+004
      7.59462   1.82068414E+004
      7.59536   1.82625003E+004
      7.59610   1.83177841E+004
      7.59683   1.83726880E+004
      7.59757   1.84272074E+004
      7.59831   1.84813375E+004
      7.59905   1.85350737E+004
      7.59979   1.85884114E+004
      7.60052   1.86413459E+004
      7.60126   1.86938726E+004
      7.60200   1.87459870E+004
      7.60274   1.87976846E+004
      7.60348   1.88489608E+004
      7.60421   1.88998112E+004
      7.60495   1.89502314E+004
      7.60569   1.90002170E+004
      7.60643   1.90497636E+004
      7.60717   1.90988669E+004
      7.60790   1.91475225E+004
      7.60864   1.91957262E+004
      7.60938   1.92434737E+004
      7.61012   1.92907610E+004
      7.61085   1.93375837E+004
      7.61159   1.93839379E+004
      7.61233   1.94298193E+004
      7.61307   1.94752240E+004
      7.61381   1.95201479E+004
      7.61454   1.95645872E+004
      7.61528   1.96085377E+004
      7.61602   1.96519958E+004
      7.61676   1.96949574E+004
      7.61750   1.97374188E+004
      7.61823   1.97793763E+004
      7.61897   1.98208261E+004
      7.61971   1.98617645E+004
      7.62045   1.99021880E+004
      7.62119   1.99420928E+004
      7.62192   1.99814756E+004
      7.62266   2.00203326E+004
      7.62340   2.00586606E+004
      7.62414   2.00964561E+004
      7.62488   2.01337158E+004
      7.62561   2.01704362E+004
      7.62635   2.02066143E+004
      7.62709   2.02422466E+004
      7.62783   2.02773302E+004
      7.62857   2.03118617E+004
      7.62930   2.03458383E+004
      7.63004   2.03792568E+004
      7.63078   2.04121143E+004
      7.63152   2.04444079E+004
      7.63226   2.04761347E+004
      7.63299   2.05072919E+004
      7.63373   2.05378767E+004
      7.63447   2.05678864E+004
      7.63521   2.05973183E+004
      7.63595   2.06261699E+004
      7.63668   2.06544386E+004
      7.63742   2.06821220E+004
      7.63816   2.07092174E+004
      7.63890   2.07357227E+004
      7.63963   2.07616354E+004
      7.64037   2.07869533E+004
      7.64111   2.08116741E+004
      7.64185   2.08357957E+004
      7.64259   2.08593160E+004
      7.64332   2.08822330E+004
      7.64406   2.09045446E+004
      7.64480   2.09262489E+004
      7.64554   2.09473440E+004
      7.64628   2.09678282E+004
      7.64701   2.09876996E+004
      7.64775   2.10069566E+004
      7.64849   2.10255975E+004
      7.64923   2.10436207E+004
      7.64997   2.10610248E+004
      7.65070   2.10778082E+004
      7.65144   2.10939695E+004
      7.65218   2.11095075E+004
      7.65292   2.11244208E+004
      7.65366   2.11387082E+004
      7.65439   2.11523685E+004
      7.65513   2.11654007E+004
      7.65587   2.11778036E+004
      7.65661   2.11895764E+004
      7.65735   2.12007181E+004
      7.65808   2.12112279E+004
      7.65882   2.12211049E+004
      7.65956   2.12303484E+004
      7.66030   2.12389578E+004
      7.66104   2.12469325E+004
      7.66177   2.12542718E+004
      7.66251   2.12609753E+004
      7.66325   2.12670427E+004
      7.66399   2.12724734E+004
      7.66472   2.12772673E+004
      7.66546   2.12814241E+004
      7.66620   2.12849436E+004
      7.66694   2.12878258E+004
      7.66768   2.12900704E+004
      7.66841   2.12916777E+004
      7.66915   2.12926476E+004
      7.66989   2.12929802E+004
      7.67063   2.12926759E+004
      7.67137   2.12917347E+004
      7.67210   2.12901572E+004
      7.67284   2.12879436E+004
      7.67358   2.12850943E+004
      7.67432   2.12816100E+004
      7.67506   2.12774911E+004
      7.67579   2.12727384E+004
      7.67653   2.12673524E+004
      7.67727   2.12613339E+004
      7.67801   2.12546838E+004
      7.67875   2.12474030E+004
      7.67948   2.12394923E+004
      7.68022   2.12309528E+004
      7.68096   2.12217854E+004
      7.68170   2.12119915E+004
      7.68244   2.12015720E+004
      7.68317   2.11905283E+004
      7.68391   2.11788616E+004
      7.68465   2.11665733E+004
      7.68539   2.11536649E+004
      7.68613   2.11401377E+004
      7.68686   2.11259933E+004
      7.68760   2.11112334E+004
      7.68834   2.10958595E+004
      7.68908   2.10798734E+004
      7.68981   2.10632768E+004
      7.69055   2.10460715E+004
      7.69129   2.10282595E+004
      7.69203   2.10098426E+004
      7.69277   2.09908229E+004
      7.69350   2.09712023E+004
      7.69424   2.09509831E+004
      7.69498   2.09301673E+004
      7.69572   2.09087572E+004
      7.69646   2.08867549E+004
      7.69719   2.08641630E+004
      7.69793   2.08409836E+004
      7.69867   2.08172193E+004
      7.69941   2.07928726E+004
      7.70015   2.07679459E+004
      7.70088   2.07424418E+004
      7.70162   2.07163630E+004
      7.70236   2.06897121E+004
      7.70310   2.06624919E+004
      7.70384   2.06347053E+004
      7.70457   2.06063549E+004
      7.70531   2.05774437E+004
      7.70605   2.05479747E+004
      7.70679   2.05179508E+004
      7.70753   2.04873750E+004
      7.70826   2.04562505E+004
      7.70900   2.04245803E+004
      7.70974   2.03923676E+004
      7.71048   2.03596156E+004
      7.71122   2.03263277E+004
      7.71195   2.02925070E+004
      7.71269   2.02581570E+004
      7.71343   2.02232811E+004
      7.71417   2.01878826E+004
      7.71490   2.01519650E+004
      7.71564   2.01155320E+004
      7.71638   2.00785869E+004
      7.71712   2.00411336E+004
      7.71786   2.00031755E+004
      7.71859   1.99647163E+004
      7.71933   1.99257599E+004
      7.72007   1.98863099E+004
      7.72081   1.98463701E+004
      7.72155   1.98059444E+004
      7.72228   1.97650366E+004
      7.72302   1.97236507E+004
      7.72376   1.96817906E+004
      7.72450   1.96394603E+004
      7.72524   1.95966638E+004
      7.72597   1.95534050E+004
      7.72671   1.95096882E+004
      7.72745   1.94655174E+004
      7.72819   1.94208967E+004
      7.72893   1.93758304E+004
      7.72966   1.93303226E+004
      7.73040   1.92843775E+004
      7.73114   1.92379994E+004
      7.73188   1.91911927E+004
      7.73262   1.91439616E+004
      7.73335   1.90963104E+004
      7.73409   1.90482435E+004
      7.73483   1.89997654E+004
      7.73557   1.89508804E+004
      7.73631   1.89015930E+004
      7.73704   1.88519077E+004
      7.73778   1.88018289E+004
      7.73852   1.87513612E+004
      7.73926   1.87005090E+004
      7.73999   1.86492770E+004
      7.74073   1.85976697E+004
      7.74147   1.85456917E+004
      7.74221   1.84933476E+004
      7.74295   1.84406421E+004
      7.74368   1.83875797E+004
      7.74442   1.83341653E+004
      7.74516   1.82804033E+004
      7.74590   1.82262986E+004
      7.74664   1.81718559E+004
      7.74737   1.81170799E+004
      7.74811   1.80619752E+004
      7.74885   1.80065467E+004
      7.74959   1.79507991E+004
      7.75033   1.78947373E+004
      7.75106   1.78383659E+004
      7.75180   1.77816898E+004
      7.75254   1.77247137E+004
      7.75328   1.76674426E+004
      7.75402   1.76098811E+004
      7.75475   1.75520342E+004
      7.75549   1.74939067E+004
      7.75623   1.74355033E+004
      7.75697   1.73768290E+004
      7.75771   1.73178886E+004
      7.75844   1.72586870E+004
      7.75918   1.71992289E+004
      7.75992   1.71395193E+004
      7.76066   1.70795630E+004
      7.76140   1.70193649E+004
      7.76213   1.69589298E+004
      7.76287   1.68982626E+004
      7.76361   1.68373681E+004
      7.76435   1.67762513E+004
      7.76508   1.67149169E+004
      7.76582   1.66533698E+004
      7.76656   1.65916149E+004
      7.76730   1.65296570E+004
      7.76804   1.64675010E+004
      7.76877   1.64051516E+004
      7.76951   1.63426137E+004
      7.77025   1.62798922E+004
      7.77099   1.62169918E+004
      7.77173   1.61539173E+004
      7.77246   1.60906737E+004
      7.77320   1.60272655E+004
      7.77394   1.59636977E+004
      7.77468   1.58999749E+004
      7.77542   1.58361020E+004
      7.77615   1.57720837E+004
      7.77689   1.57079247E+004
      7.77763   1.56436297E+004
      7.77837   1.55792035E+004
      7.77911   1.55146508E+004
      7.77984   1.54499762E+004
      7.78058   1.53851843E+004
      7.78132   1.53202800E+004
      7.78206   1.52552677E+004
      7.78280   1.51901521E+004
      7.78353   1.51249378E+004
      7.78427   1.50596294E+004
      7.78501   1.49942315E+004
      7.78575   1.49287485E+004
      7.78649   1.48631851E+004
      7.78722   1.47975457E+004
      7.78796   1.47318348E+004
      7.78870   1.46660570E+004
      7.78944   1.46002165E+004
      7.79017   1.45343180E+004
      7.79091   1.44683657E+004
      7.79165   1.44023640E+004
      7.79239   1.43363174E+004
      7.79313   1.42702300E+004
      7.79386   1.42041064E+004
      7.79460   1.41379507E+004
      7.79534   1.40717672E+004
      7.79608   1.40055601E+004
      7.79682   1.39393336E+004
      7.79755   1.38730920E+004
      7.79829   1.38068394E+004
      7.79903   1.37405800E+004
      7.79977   1.36743177E+004
      7.80051   1.36080568E+004
      7.80124   1.35418012E+004
      7.80198   1.34755551E+004
      7.80272   1.34093222E+004
      7.80346   1.33431068E+004
      7.80420   1.32769126E+004
      7.80493   1.32107436E+004
      7.80567   1.31446036E+004
      7.80641   1.30784966E+004
      7.80715   1.30124263E+004
      7.80789   1.29463965E+004
      7.80862   1.28804109E+004
      7.80936   1.28144733E+004
      7.81010   1.27485874E+004
      7.81084   1.26827568E+004
      7.81158   1.26169852E+004
      7.81231   1.25512761E+004
      7.81305   1.24856331E+004
      7.81379   1.24200598E+004
      7.81453   1.23545596E+004
      7.81526   1.22891360E+004
      7.81600   1.22237924E+004
      7.81674   1.21585322E+004
      7.81748   1.20933587E+004
      7.81822   1.20282754E+004
      7.81895   1.19632854E+004
      7.81969   1.18983921E+004
      7.82043   1.18335986E+004
      7.82117   1.17689082E+004
      7.82191   1.17043239E+004
      7.82264   1.16398490E+004
      7.82338   1.15754865E+004
      7.82412   1.15112393E+004
      7.82486   1.14471106E+004
      7.82560   1.13831034E+004
      7.82633   1.13192204E+004
      7.82707   1.12554647E+004
      7.82781   1.11918391E+004
      7.82855   1.11283464E+004
      7.82929   1.10649894E+004
      7.83002   1.10017709E+004
      7.83076   1.09386936E+004
      7.83150   1.08757602E+004
      7.83224   1.08129732E+004
      7.83298   1.07503354E+004
      7.83371   1.06878493E+004
      7.83445   1.06255173E+004
      7.83519   1.05633421E+004
      7.83593   1.05013261E+004
      7.83667   1.04394716E+004
      7.83740   1.03777811E+004
      7.83814   1.03162569E+004
      7.83888   1.02549014E+004
      7.83962   1.01937167E+004
      7.84035   1.01327052E+004
      7.84109   1.00718690E+004
      7.84183   1.00112103E+004
      7.84257   9.95073127E+003
      7.84331   9.89043391E+003
      7.84404   9.83032030E+003
      7.84478   9.77039246E+003
      7.84552   9.71065238E+003
      7.84626   9.65110197E+003
      7.84700   9.59174316E+003
      7.84773   9.53257781E+003
      7.84847   9.47360775E+003
      7.84921   9.41483476E+003
      7.84995   9.35626062E+003
      7.85069   9.29788703E+003
      7.85142   9.23971569E+003
      7.85216   9.18174824E+003
      7.85290   9.12398630E+003
      7.85364   9.06643145E+003
      7.85438   9.00908522E+003
      7.85511   8.95194912E+003
      7.85585   8.89502462E+003
      7.85659   8.83831316E+003
      7.85733   8.78181613E+003
      7.85807   8.72553491E+003
      7.85880   8.66947082E+003
      7.85954   8.61362516E+003
      7.86028   8.55799918E+003
      7.86102   8.50259413E+003
      7.86176   8.44741117E+003
      7.86249   8.39245149E+003
      7.86323   8.33771619E+003
      7.86397   8.28320638E+003
      7.86471   8.22892310E+003
      7.86544   8.17486739E+003
      7.86618   8.12104023E+003
      7.86692   8.06744259E+003
      7.86766   8.01407538E+003
      7.86840   7.96093951E+003
      7.86913   7.90803582E+003
      7.86987   7.85536516E+003
      7.87061   7.80292832E+003
      7.87135   7.75072606E+003
      7.87209   7.69875912E+003
      7.87282   7.64702820E+003
      7.87356   7.59553398E+003
      7.87430   7.54427709E+003
      7.87504   7.49325815E+003
      7.87578   7.44247774E+003
      7.87651   7.39193641E+003
      7.87725   7.34163468E+003
      7.87799   7.29157304E+003
      7.87873   7.24175196E+003
      7.87947   7.19217188E+003
      7.88020   7.14283319E+003
      7.88094   7.09373627E+003
      7.88168   7.04488148E+003
      7.88242   6.99626913E+003
      7.88316   6.94789953E+003
      7.88389   6.89977292E+003
      7.88463   6.85188957E+003
      7.88537   6.80424967E+003
      7.88611   6.75685342E+003
      7.88685   6.70970097E+003
      7.88758   6.66279246E+003
      7.88832   6.61612800E+003
      7.88906   6.56970768E+003
      7.88980   6.52353154E+003
      7.89053   6.47759963E+003
      7.89127   6.43191195E+003
      7.89201   6.38646849E+003
      7.89275   6.34126921E+003
      7.89349   6.29631405E+003
      7.89422   6.25160292E+003
      7.89496   6.20713572E+003
      7.89570   6.16291231E+003
      7.89644   6.11893253E+003
      7.89718   6.07519623E+003
      7.89791   6.03170318E+003
      7.89865   5.98845319E+003
      7.89939   5.94544600E+003
      7.90013   5.90268136E+003
      7.90087   5.86015898E+003
      7.90160   5.81787857E+003
      7.90234   5.77583979E+003
      7.90308   5.73404232E+003
      7.90382   5.69248578E+003
      7.90456   5.65116980E+003
      7.90529   5.61009399E+003
      7.90603   5.56925791E+003
      7.90677   5.52866114E+003
      7.90751   5.48830322E+003
      7.90825   5.44818368E+003
      7.90898   5.40830204E+003
      7.90972   5.36865778E+003
      7.91046   5.32925039E+003
      7.91120   5.29007933E+003
      7.91194   5.25114404E+003
      7.91267   5.21244395E+003
      7.91341   5.17397848E+003
      7.91415   5.13574703E+003
      7.91489   5.09774898E+003
      7.91563   5.05998369E+003
      7.91636   5.02245053E+003
      7.91710   4.98514884E+003
      7.91784   4.94807794E+003
      7.91858   4.91123714E+003
      7.91931   4.87462575E+003
      7.92005   4.83824306E+003
      7.92079   4.80208833E+003
      7.92153   4.76616084E+003
      7.92227   4.73045984E+003
      7.92300   4.69498455E+003
      7.92374   4.65973422E+003
      7.92448   4.62470805E+003
      7.92522   4.58990525E+003
      7.92596   4.55532502E+003
      7.92669   4.52096654E+003
      7.92743   4.48682899E+003
      7.92817   4.45291152E+003
      7.92891   4.41921330E+003
      7.92965   4.38573347E+003
      7.93038   4.35247117E+003
      7.93112   4.31942552E+003
      7.93186   4.28659564E+003
      7.93260   4.25398065E+003
      7.93334   4.22157965E+003
      7.93407   4.18939173E+003
      7.93481   4.15741598E+003
      7.93555   4.12565148E+003
      7.93629   4.09409730E+003
      7.93703   4.06275252E+003
      7.93776   4.03161619E+003
      7.93850   4.00068736E+003
      7.93924   3.96996509E+003
      7.93998   3.93944841E+003
      7.94072   3.90913636E+003
      7.94145   3.87902798E+003
      7.94219   3.84912228E+003
      7.94293   3.81941830E+003
      7.94367   3.78991504E+003
      7.94440   3.76061152E+003
      7.94514   3.73150675E+003
      7.94588   3.70259973E+003
      7.94662   3.67388947E+003
      7.94736   3.64537495E+003
      7.94809   3.61705517E+003
      7.94883   3.58892913E+003
      7.94957   3.56099580E+003
      7.95031   3.53325418E+003
      7.95105   3.50570324E+003
      7.95178   3.47834197E+003
      7.95252   3.45116934E+003
      7.95326   3.42418433E+003
      7.95400   3.39738591E+003
      7.95474   3.37077306E+003
      7.95547   3.34434474E+003
      7.95621   3.31809993E+003
      7.95695   3.29203759E+003
      7.95769   3.26615669E+003
      7.95843   3.24045621E+003
      7.95916   3.21493509E+003
      7.95990   3.18959232E+003
      7.96064   3.16442686E+003
      7.96138   3.13943767E+003
      7.96212   3.11462371E+003
      7.96285   3.08998397E+003
      7.96359   3.06551740E+003
      7.96433   3.04122297E+003
      7.96507   3.01709965E+003
      7.96581   2.99314641E+003
      7.96654   2.96936222E+003
      7.96728   2.94574604E+003
      7.96802   2.92229687E+003
      7.96876   2.89901366E+003
      7.96949   2.87589539E+003
      7.97023   2.85294105E+003
      7.97097   2.83014961E+003
      7.97171   2.80752005E+003
      7.97245   2.78505135E+003
      7.97318   2.76274251E+003
      7.97392   2.74059252E+003
      7.97466   2.71860035E+003
      7.97540   2.69676501E+003
      7.97614   2.67508549E+003
      7.97687   2.65356079E+003
      7.97761   2.63218991E+003
      7.97835   2.61097186E+003
      7.97909   2.58990564E+003
      7.97983   2.56899027E+003
      7.98056   2.54822476E+003
      7.98130   2.52760812E+003
      7.98204   2.50713939E+003
      7.98278   2.48681758E+003
      7.98352   2.46664173E+003
      7.98425   2.44661086E+003
      7.98499   2.42672401E+003
      7.98573   2.40698022E+003
      7.98647   2.38737854E+003
      7.98721   2.36791801E+003
      7.98794   2.34859769E+003
      7.98868   2.32941664E+003
      7.98942   2.31037390E+003
      7.99016   2.29146855E+003
      7.99090   2.27269967E+003
      7.99163   2.25406631E+003
      7.99237   2.23556756E+003
      7.99311   2.21720251E+003
      7.99385   2.19897024E+003
      7.99458   2.18086984E+003
      7.99532   2.16290041E+003
      7.99606   2.14506105E+003
      7.99680   2.12735088E+003
      7.99754   2.10976899E+003
      7.99827   2.09231451E+003
      7.99901   2.07498656E+003
      7.99975   2.05778426E+003
      8.00049   2.04070675E+003
      8.00123   2.02375316E+003
      8.00196   2.00692264E+003
      8.00270   1.99021432E+003
      8.00344   1.97362737E+003
      8.00418   1.95716094E+003
      8.00492   1.94081419E+003
      8.00565   1.92458629E+003
      8.00639   1.90847641E+003
      8.00713   1.89248373E+003
      8.00787   1.87660743E+003
      8.00861   1.86084670E+003
      8.00934   1.84520074E+003
      8.01008   1.82966875E+003
      8.01082   1.81424992E+003
      8.01156   1.79894347E+003
      8.01230   1.78374862E+003
      8.01303   1.76866458E+003
      8.01377   1.75369057E+003
      8.01451   1.73882585E+003
      8.01525   1.72406963E+003
      8.01599   1.70942116E+003
      8.01672   1.69487968E+003
      8.01746   1.68044446E+003
      8.01820   1.66611475E+003
      8.01894   1.65188981E+003
      8.01967   1.63776891E+003
      8.02041   1.62375133E+003
      8.02115   1.60983634E+003
      8.02189   1.59602323E+003
      8.02263   1.58231130E+003
      8.02336   1.56869983E+003
      8.02410   1.55518812E+003
      8.02484   1.54177549E+003
      8.02558   1.52846125E+003
      8.02632   1.51524471E+003
      8.02705   1.50212519E+003
      8.02779   1.48910202E+003
      8.02853   1.47617454E+003
      8.02927   1.46334207E+003
      8.03001   1.45060398E+003
      8.03074   1.43795959E+003
      8.03148   1.42540827E+003
      8.03222   1.41294937E+003
      8.03296   1.40058226E+003
      8.03370   1.38830631E+003
      8.03443   1.37612088E+003
      8.03517   1.36402537E+003
      8.03591   1.35201914E+003
      8.03665   1.34010159E+003
      8.03739   1.32827212E+003
      8.03812   1.31653012E+003
      8.03886   1.30487499E+003
      8.03960   1.29330614E+003
      8.04034   1.28182298E+003
      8.04108   1.27042494E+003
      8.04181   1.25911144E+003
      8.04255   1.24788189E+003
      8.04329   1.23673574E+003
      8.04403   1.22567242E+003
      8.04476   1.21469137E+003
      8.04550   1.20379203E+003
      8.04624   1.19297386E+003
      8.04698   1.18223631E+003
      8.04772   1.17157884E+003
      8.04845   1.16100092E+003
      8.04919   1.15050200E+003
      8.04993   1.14008157E+003
      8.05067   1.12973909E+003
      8.05141   1.11947406E+003
      8.05214   1.10928596E+003
      8.05288   1.09917427E+003
      8.05362   1.08913848E+003
      8.05436   1.07917811E+003
      8.05510   1.06929264E+003
      8.05583   1.05948159E+003
      8.05657   1.04974446E+003
      8.05731   1.04008077E+003
      8.05805   1.03049004E+003
      8.05879   1.02097178E+003
      8.05952   1.01152552E+003
      8.06026   1.00215080E+003
      8.06100   9.92847149E+002
      8.06174   9.83614097E+002
      8.06248   9.74451188E+002
      8.06321   9.65357969E+002
      8.06395   9.56333985E+002
      8.06469   9.47378789E+002
      8.06543   9.38491937E+002
      8.06617   9.29672987E+002
      8.06690   9.20921500E+002
      8.06764   9.12237044E+002
      8.06838   9.03619187E+002
      8.06912   8.95067502E+002
      8.06985   8.86581564E+002
      8.07059   8.78160952E+002
      8.07133   8.69805249E+002
      8.07207   8.61514040E+002
      8.07281   8.53286915E+002
      8.07354   8.45123465E+002
      8.07428   8.37023284E+002
      8.07502   8.28985972E+002
      8.07576   8.21011129E+002
      8.07650   8.13098359E+002
      8.07723   8.05247269E+002
      8.07797   7.97457470E+002
      8.07871   7.89728573E+002
      8.07945   7.82060195E+002
      8.08019   7.74451954E+002
      8.08092   7.66903471E+002
      8.08166   7.59414371E+002
      8.08240   7.51984279E+002
      8.08314   7.44612826E+002
      8.08388   7.37299642E+002
      8.08461   7.30044364E+002
      8.08535   7.22846627E+002
      8.08609   7.15706072E+002
      8.08683   7.08622341E+002
      8.08757   7.01595077E+002
      8.08830   6.94623929E+002
      8.08904   6.87708545E+002
      8.08978   6.80848578E+002
      8.09052   6.74043681E+002
      8.09126   6.67293511E+002
      8.09199   6.60597726E+002
      8.09273   6.53955988E+002
      8.09347   6.47367959E+002
      8.09421   6.40833305E+002
      8.09494   6.34351693E+002
      8.09568   6.27922792E+002
      8.09642   6.21546275E+002
      8.09716   6.15221814E+002
      8.09790   6.08949086E+002
      8.09863   6.02727768E+002
      8.09937   5.96557540E+002
      8.10011   5.90438084E+002
      8.10085   5.84369082E+002
      8.10159   5.78350221E+002
      8.10232   5.72381187E+002
      8.10306   5.66461670E+002
      8.10380   5.60591360E+002
      8.10454   5.54769951E+002
      8.10528   5.48997136E+002
      8.10601   5.43272612E+002
      8.10675   5.37596077E+002
      8.10749   5.31967230E+002
      8.10823   5.26385773E+002
      8.10897   5.20851408E+002
      8.10970   5.15363840E+002
      8.11044   5.09922776E+002
      8.11118   5.04527921E+002
      8.11192   4.99178987E+002
      8.11266   4.93875684E+002
      8.11339   4.88617723E+002
      8.11413   4.83404820E+002
      8.11487   4.78236688E+002
      8.11561   4.73113045E+002
      8.11635   4.68033608E+002
      8.11708   4.62998098E+002
      8.11782   4.58006236E+002
      8.11856   4.53057743E+002
      8.11930   4.48152343E+002
      8.12003   4.43289761E+002
      8.12077   4.38469724E+002
      8.12151   4.33691959E+002
      8.12225   4.28956196E+002
      8.12299   4.24262164E+002
      8.12372   4.19609595E+002
      8.12446   4.14998221E+002
      8.12520   4.10427777E+002
      8.12594   4.05897998E+002
      8.12668   4.01408620E+002
      8.12741   3.96959381E+002
      8.12815   3.92550020E+002
      8.12889   3.88180276E+002
      8.12963   3.83849890E+002
      8.13037   3.79558605E+002
      8.13110   3.75306165E+002
      8.13184   3.71092313E+002
      8.13258   3.66916795E+002
      8.13332   3.62779358E+002
      8.13406   3.58679749E+002
      8.13479   3.54617718E+002
      8.13553   3.50593014E+002
      8.13627   3.46605388E+002
      8.13701   3.42654592E+002
      8.13775   3.38740380E+002
      8.13848   3.34862504E+002
      8.13922   3.31020721E+002
      8.13996   3.27214786E+002
      8.14070   3.23444456E+002
      8.14144   3.19709490E+002
      8.14217   3.16009646E+002
      8.14291   3.12344684E+002
      8.14365   3.08714366E+002
      8.14439   3.05118453E+002
      8.14512   3.01556708E+002
      8.14586   2.98028896E+002
      8.14660   2.94534780E+002
      8.14734   2.91074127E+002
      8.14808   2.87646703E+002
      8.14881   2.84252276E+002
      8.14955   2.80890614E+002
      8.15029   2.77561487E+002
      8.15103   2.74264665E+002
      8.15177   2.70999920E+002
      8.15250   2.67767023E+002
      8.15324   2.64565748E+002
      8.15398   2.61395869E+002
      8.15472   2.58257160E+002
      8.15546   2.55149397E+002
      8.15619   2.52072358E+002
      8.15693   2.49025818E+002
      8.15767   2.46009558E+002
      8.15841   2.43023356E+002
      8.15915   2.40066992E+002
      8.15988   2.37140247E+002
      8.16062   2.34242904E+002
      8.16136   2.31374745E+002
      8.16210   2.28535553E+002
      8.16284   2.25725114E+002
      8.16357   2.22943212E+002
      8.16431   2.20189634E+002
      8.16505   2.17464167E+002
      8.16579   2.14766600E+002
      8.16653   2.12096720E+002
      8.16726   2.09454318E+002
      8.16800   2.06839183E+002
      8.16874   2.04251109E+002
      8.16948   2.01689886E+002
      8.17021   1.99155308E+002
      8.17095   1.96647169E+002
      8.17169   1.94165265E+002
      8.17243   1.91709389E+002
      8.17317   1.89279340E+002
      8.17390   1.86874915E+002
      8.17464   1.84495911E+002
      8.17538   1.82142129E+002
      8.17612   1.79813368E+002
      8.17686   1.77509428E+002
      8.17759   1.75230113E+002
      8.17833   1.72975224E+002
      8.17907   1.70744565E+002
      8.17981   1.68537940E+002
      8.18055   1.66355154E+002
      8.18128   1.64196014E+002
      8.18202   1.62060326E+002
      8.18276   1.59947899E+002
      8.18350   1.57858540E+002
      8.18424   1.55792060E+002
      8.18497   1.53748269E+002
      8.18571   1.51726978E+002
      8.18645   1.49727999E+002
      8.18719   1.47751145E+002
      8.18793   1.45796231E+002
      8.18866   1.43863071E+002
      8.18940   1.41951481E+002
      8.19014   1.40061276E+002
      8.19088   1.38192276E+002
      8.19162   1.36344297E+002
      8.19235   1.34517160E+002
      8.19309   1.32710684E+002
      8.19383   1.30924690E+002
      8.19457   1.29159001E+002
      8.19531   1.27413438E+002
      8.19604   1.25687826E+002
      8.19678   1.23981989E+002
      8.19752   1.22295752E+002
      8.19826   1.20628942E+002
      8.19899   1.18981387E+002
      8.19973   1.17352913E+002
      8.20047   1.15743351E+002
      8.20121   1.14152530E+002
      8.20195   1.12580280E+002
      8.20268   1.11026435E+002
      8.20342   1.09490826E+002
      8.20416   1.07973286E+002
      8.20490   1.06473651E+002
      8.20564   1.04991756E+002
      8.20637   1.03527437E+002
      8.20711   1.02080531E+002
      8.20785   1.00650876E+002
      8.20859   9.92383113E+001
      8.20933   9.78426769E+001
      8.21006   9.64638136E+001
      8.21080   9.51015631E+001
      8.21154   9.37557680E+001
      8.21228   9.24262721E+001
      8.21302   9.11129197E+001
      8.21375   8.98155564E+001
      8.21449   8.85340285E+001
      8.21523   8.72681833E+001
      8.21597   8.60178690E+001
      8.21671   8.47829346E+001
      8.21744   8.35632304E+001
      8.21818   8.23586072E+001
      8.21892   8.11689169E+001
      8.21966   7.99940124E+001
      8.22040   7.88337474E+001
      8.22113   7.76879766E+001
      8.22187   7.65565556E+001
      8.22261   7.54393409E+001
      8.22335   7.43361901E+001
      8.22408   7.32469613E+001
      8.22482   7.21715141E+001
      8.22556   7.11097086E+001
      8.22630   7.00614060E+001
      8.22704   6.90264683E+001
      8.22777   6.80047586E+001
      8.22851   6.69961408E+001
      8.22925   6.60004799E+001
      8.22999   6.50176415E+001
      8.23073   6.40474924E+001
      8.23146   6.30899002E+001
      8.23220   6.21447335E+001
      8.23294   6.12118618E+001
      8.23368   6.02911555E+001
      8.23442   5.93824860E+001
      8.23515   5.84857254E+001
      8.23589   5.76007469E+001
      8.23663   5.67274247E+001
      8.23737   5.58656337E+001
      8.23811   5.50152499E+001
      8.23884   5.41761501E+001
      8.23958   5.33482120E+001
      8.24032   5.25313143E+001
      8.24106   5.17253366E+001
      8.24180   5.09301594E+001
      8.24253   5.01456641E+001
      8.24327   4.93717329E+001
      8.24401   4.86082491E+001
      8.24475   4.78550968E+001
      8.24549   4.71121609E+001
      8.24622   4.63793275E+001
      8.24696   4.56564833E+001
      8.24770   4.49435160E+001
      8.24844   4.42403142E+001
      8.24917   4.35467675E+001
      8.24991   4.28627661E+001
      8.25065   4.21882014E+001
      8.25139   4.15229656E+001
      8.25213   4.08669516E+001
      8.25286   4.02200534E+001
      8.25360   3.95821658E+001
      8.25434   3.89531844E+001
      8.25508   3.83330059E+001
      8.25582   3.77215276E+001
      8.25655   3.71186478E+001
      8.25729   3.65242657E+001
      8.25803   3.59382814E+001
      8.25877   3.53605956E+001
      8.25951   3.47911101E+001
      8.26024   3.42297276E+001
      8.26098   3.36763514E+001
      8.26172   3.31308859E+001
      8.26246   3.25932362E+001
      8.26320   3.20633082E+001
      8.26393   3.15410089E+001
      8.26467   3.10262458E+001
      8.26541   3.05189274E+001
      8.26615   3.00189632E+001
      8.26689   2.95262631E+001
      8.26762   2.90407382E+001
      8.26836   2.85623004E+001
      8.26910   2.80908621E+001
      8.26984   2.76263368E+001
      8.27058   2.71686387E+001
      8.27131   2.67176829E+001
      8.27205   2.62733852E+001
      8.27279   2.58356622E+001
      8.27353   2.54044314E+001
      8.27426   2.49796110E+001
      8.27500   2.45611199E+001
      8.27574   2.41488781E+001
      8.27648   2.37428060E+001
      8.27722   2.33428250E+001
      8.27795   2.29488572E+001
      8.27869   2.25608254E+001
      8.27943   2.21786534E+001
      8.28017   2.18022656E+001
      8.28091   2.14315871E+001
      8.28164   2.10665437E+001
      8.28238   2.07070623E+001
      8.28312   2.03530701E+001
      8.28386   2.00044954E+001
      8.28460   1.96612669E+001
      8.28533   1.93233144E+001
      8.28607   1.89905681E+001
      8.28681   1.86629590E+001
      8.28755   1.83404191E+001
      8.28829   1.80228807E+001
      8.28902   1.77102770E+001
      8.28976   1.74025420E+001
      8.29050   1.70996102E+001
      8.29124   1.68014170E+001
      8.29198   1.65078982E+001
      8.29271   1.62189907E+001
      8.29345   1.59346317E+001
      8.29419   1.56547593E+001
      8.29493   1.53793122E+001
      8.29567   1.51082298E+001
      8.29640   1.48414520E+001
      8.29714   1.45789197E+001
      8.29788   1.43205741E+001
      8.29862   1.40663573E+001
      8.29935   1.38162119E+001
      8.30009   1.35700812E+001
      8.30083   1.33279092E+001
      8.30157   1.30896404E+001
      8.30231   1.28552199E+001
      8.30304   1.26245937E+001
      8.30378   1.23977081E+001
      8.30452   1.21745101E+001
      8.30526   1.19549476E+001
      8.30600   1.17389686E+001
      8.30673   1.15265221E+001
      8.30747   1.13175575E+001
      8.30821   1.11120248E+001
      8.30895   1.09098748E+001
      8.30969   1.07110585E+001
      8.31042   1.05155279E+001
      8.31116   1.03232352E+001
      8.31190   1.01341334E+001
      8.31264   9.94817599E+000
      8.31338   9.76531701E+000
      8.31411   9.58551107E+000
      8.31485   9.40871333E+000
      8.31559   9.23487948E+000
      8.31633   9.06396576E+000
      8.31707   8.89592895E+000
      8.31780   8.73072634E+000
      8.31854   8.56831578E+000
      8.31928   8.40865560E+000
      8.32002   8.25170468E+000
      8.32076   8.09742240E+000
      8.32149   7.94576865E+000
      8.32223   7.79670382E+000
      8.32297   7.65018880E+000
      8.32371   7.50618497E+000
      8.32444   7.36465421E+000
      8.32518   7.22555887E+000
      8.32592   7.08886180E+000
      8.32666   6.95452630E+000
      8.32740   6.82251618E+000
      8.32813   6.69279567E+000
      8.32887   6.56532951E+000
      8.32961   6.44008285E+000
      8.33035   6.31702134E+000
      8.33109   6.19611105E+000
      8.33182   6.07731850E+000
      8.33256   5.96061067E+000
      8.33330   5.84595494E+000
      8.33404   5.73331916E+000
      8.33478   5.62267158E+000
      8.33551   5.51398089E+000
