      6.16425   8.67962883E+000
      6.16498   8.85289951E+000
      6.16572   9.02936914E+000
      6.16645   9.20909131E+000
      6.16718   9.39212042E+000
      6.16791   9.57851165E+000
      6.16865   9.76832099E+000
      6.16938   9.96160528E+000
      6.17011   1.01584221E+001
      6.17085   1.03588301E+001
      6.17158   1.05628884E+001
      6.17231   1.07706573E+001
      6.17305   1.09821979E+001
      6.17378   1.11975721E+001
      6.17451   1.14168426E+001
      6.17524   1.16400733E+001
      6.17598   1.18673288E+001
      6.17671   1.20986747E+001
      6.17744   1.23341773E+001
      6.17818   1.25739042E+001
      6.17891   1.28179238E+001
      6.17964   1.30663053E+001
      6.18038   1.33191191E+001
      6.18111   1.35764366E+001
      6.18184   1.38383300E+001
      6.18257   1.41048726E+001
      6.18331   1.43761388E+001
      6.18404   1.46522039E+001
      6.18477   1.49331443E+001
      6.18551   1.52190376E+001
      6.18624   1.55099621E+001
      6.18697   1.58059976E+001
      6.18771   1.61072247E+001
      6.18844   1.64137251E+001
      6.18917   1.67255819E+001
      6.18990   1.70428790E+001
      6.19064   1.73657015E+001
      6.19137   1.76941358E+001
      6.19210   1.80282694E+001
      6.19284   1.83681908E+001
      6.19357   1.87139900E+001
      6.19430   1.90657579E+001
      6.19504   1.94235867E+001
      6.19577   1.97875700E+001
      6.19650   2.01578024E+001
      6.19723   2.05343799E+001
      6.19797   2.09173995E+001
      6.19870   2.13069599E+001
      6.19943   2.17031607E+001
      6.20017   2.21061031E+001
      6.20090   2.25158893E+001
      6.20163   2.29326230E+001
      6.20237   2.33564094E+001
      6.20310   2.37873547E+001
      6.20383   2.42255667E+001
      6.20456   2.46711545E+001
      6.20530   2.51242286E+001
      6.20603   2.55849009E+001
      6.20676   2.60532848E+001
      6.20750   2.65294950E+001
      6.20823   2.70136476E+001
      6.20896   2.75058605E+001
      6.20970   2.80062526E+001
      6.21043   2.85149446E+001
      6.21116   2.90320586E+001
      6.21189   2.95577183E+001
      6.21263   3.00920487E+001
      6.21336   3.06351766E+001
      6.21409   3.11872302E+001
      6.21483   3.17483394E+001
      6.21556   3.23186355E+001
      6.21629   3.28982514E+001
      6.21703   3.34873219E+001
      6.21776   3.40859831E+001
      6.21849   3.46943729E+001
      6.21922   3.53126307E+001
      6.21996   3.59408979E+001
      6.22069   3.65793171E+001
      6.22142   3.72280330E+001
      6.22216   3.78871919E+001
      6.22289   3.85569416E+001
      6.22362   3.92374320E+001
      6.22436   3.99288145E+001
      6.22509   4.06312423E+001
      6.22582   4.13448705E+001
      6.22655   4.20698558E+001
      6.22729   4.28063569E+001
      6.22802   4.35545342E+001
      6.22875   4.43145500E+001
      6.22949   4.50865684E+001
      6.23022   4.58707554E+001
      6.23095   4.66672789E+001
      6.23169   4.74763086E+001
      6.23242   4.82980163E+001
      6.23315   4.91325754E+001
      6.23388   4.99801616E+001
      6.23462   5.08409524E+001
      6.23535   5.17151271E+001
      6.23608   5.26028672E+001
      6.23682   5.35043562E+001
      6.23755   5.44197794E+001
      6.23828   5.53493243E+001
      6.23902   5.62931805E+001
      6.23975   5.72515393E+001
      6.24048   5.82245946E+001
      6.24121   5.92125418E+001
      6.24195   6.02155789E+001
      6.24268   6.12339056E+001
      6.24341   6.22677240E+001
      6.24415   6.33172381E+001
      6.24488   6.43826544E+001
      6.24561   6.54641811E+001
      6.24634   6.65620290E+001
      6.24708   6.76764108E+001
      6.24781   6.88075415E+001
      6.24854   6.99556383E+001
      6.24928   7.11209207E+001
      6.25001   7.23036104E+001
      6.25074   7.35039312E+001
      6.25148   7.47221094E+001
      6.25221   7.59583735E+001
      6.25294   7.72129542E+001
      6.25367   7.84860846E+001
      6.25441   7.97780001E+001
      6.25514   8.10889384E+001
      6.25587   8.24191397E+001
      6.25661   8.37688463E+001
      6.25734   8.51383029E+001
      6.25807   8.65277569E+001
      6.25881   8.79374577E+001
      6.25954   8.93676573E+001
      6.26027   9.08186100E+001
      6.26100   9.22905728E+001
      6.26174   9.37838047E+001
      6.26247   9.52985676E+001
      6.26320   9.68351255E+001
      6.26394   9.83937450E+001
      6.26467   9.99746954E+001
      6.26540   1.01578248E+002
      6.26614   1.03204677E+002
      6.26687   1.04854259E+002
      6.26760   1.06527273E+002
      6.26833   1.08224001E+002
      6.26907   1.09944728E+002
      6.26980   1.11689738E+002
      6.27053   1.13459323E+002
      6.27127   1.15253774E+002
      6.27200   1.17073385E+002
      6.27273   1.18918453E+002
      6.27347   1.20789279E+002
      6.27420   1.22686164E+002
      6.27493   1.24609413E+002
      6.27566   1.26559333E+002
      6.27640   1.28536235E+002
      6.27713   1.30540432E+002
      6.27786   1.32572238E+002
      6.27860   1.34631972E+002
      6.27933   1.36719954E+002
      6.28006   1.38836508E+002
      6.28080   1.40981959E+002
      6.28153   1.43156637E+002
      6.28226   1.45360873E+002
      6.28299   1.47595000E+002
      6.28373   1.49859356E+002
      6.28446   1.52154279E+002
      6.28519   1.54480112E+002
      6.28593   1.56837200E+002
      6.28666   1.59225889E+002
      6.28739   1.61646531E+002
      6.28813   1.64099478E+002
      6.28886   1.66585086E+002
      6.28959   1.69103712E+002
      6.29032   1.71655719E+002
      6.29106   1.74241469E+002
      6.29179   1.76861329E+002
      6.29252   1.79515669E+002
      6.29326   1.82204860E+002
      6.29399   1.84929276E+002
      6.29472   1.87689296E+002
      6.29546   1.90485298E+002
      6.29619   1.93317667E+002
      6.29692   1.96186786E+002
      6.29765   1.99093046E+002
      6.29839   2.02036835E+002
      6.29912   2.05018548E+002
      6.29985   2.08038582E+002
      6.30059   2.11097334E+002
      6.30132   2.14195207E+002
      6.30205   2.17332605E+002
      6.30279   2.20509936E+002
      6.30352   2.23727608E+002
      6.30425   2.26986034E+002
      6.30498   2.30285630E+002
      6.30572   2.33626813E+002
      6.30645   2.37010002E+002
      6.30718   2.40435623E+002
      6.30792   2.43904099E+002
      6.30865   2.47415859E+002
      6.30938   2.50971335E+002
      6.31012   2.54570959E+002
      6.31085   2.58215167E+002
      6.31158   2.61904399E+002
      6.31231   2.65639096E+002
      6.31305   2.69419701E+002
      6.31378   2.73246661E+002
      6.31451   2.77120424E+002
      6.31525   2.81041442E+002
      6.31598   2.85010169E+002
      6.31671   2.89027062E+002
      6.31745   2.93092578E+002
      6.31818   2.97207181E+002
      6.31891   3.01371332E+002
      6.31964   3.05585500E+002
      6.32038   3.09850151E+002
      6.32111   3.14165758E+002
      6.32184   3.18532793E+002
      6.32258   3.22951733E+002
      6.32331   3.27423055E+002
      6.32404   3.31947240E+002
      6.32478   3.36524771E+002
      6.32551   3.41156132E+002
      6.32624   3.45841811E+002
      6.32697   3.50582297E+002
      6.32771   3.55378082E+002
      6.32844   3.60229659E+002
      6.32917   3.65137525E+002
      6.32991   3.70102177E+002
      6.33064   3.75124116E+002
      6.33137   3.80203844E+002
      6.33210   3.85341865E+002
      6.33284   3.90538686E+002
      6.33357   3.95794814E+002
      6.33430   4.01110761E+002
      6.33504   4.06487037E+002
      6.33577   4.11924158E+002
      6.33650   4.17422638E+002
      6.33724   4.22982996E+002
      6.33797   4.28605751E+002
      6.33870   4.34291425E+002
      6.33943   4.40040540E+002
      6.34017   4.45853621E+002
      6.34090   4.51731194E+002
      6.34163   4.57673787E+002
      6.34237   4.63681930E+002
      6.34310   4.69756154E+002
      6.34383   4.75896990E+002
      6.34457   4.82104973E+002
      6.34530   4.88380639E+002
      6.34603   4.94724524E+002
      6.34676   5.01137166E+002
      6.34750   5.07619104E+002
      6.34823   5.14170879E+002
      6.34896   5.20793033E+002
      6.34970   5.27486108E+002
      6.35043   5.34250648E+002
      6.35116   5.41087199E+002
      6.35190   5.47996307E+002
      6.35263   5.54978518E+002
      6.35336   5.62034380E+002
      6.35409   5.69164443E+002
      6.35483   5.76369255E+002
      6.35556   5.83649366E+002
      6.35629   5.91005328E+002
      6.35703   5.98437693E+002
      6.35776   6.05947012E+002
      6.35849   6.13533838E+002
      6.35923   6.21198725E+002
      6.35996   6.28942225E+002
      6.36069   6.36764893E+002
      6.36142   6.44667283E+002
      6.36216   6.52649949E+002
      6.36289   6.60713447E+002
      6.36362   6.68858330E+002
      6.36436   6.77085153E+002
      6.36509   6.85394472E+002
      6.36582   6.93786840E+002
      6.36656   7.02262813E+002
      6.36729   7.10822945E+002
      6.36802   7.19467789E+002
      6.36875   7.28197900E+002
      6.36949   7.37013830E+002
      6.37022   7.45916133E+002
      6.37095   7.54905360E+002
      6.37169   7.63982063E+002
      6.37242   7.73146793E+002
      6.37315   7.82400101E+002
      6.37389   7.91742535E+002
      6.37462   8.01174643E+002
      6.37535   8.10696974E+002
      6.37608   8.20310073E+002
      6.37682   8.30014486E+002
      6.37755   8.39810756E+002
      6.37828   8.49699426E+002
      6.37902   8.59681037E+002
      6.37975   8.69756129E+002
      6.38048   8.79925240E+002
      6.38122   8.90188907E+002
      6.38195   9.00547664E+002
      6.38268   9.11002045E+002
      6.38341   9.21552581E+002
      6.38415   9.32199800E+002
      6.38488   9.42944231E+002
      6.38561   9.53786398E+002
      6.38635   9.64726824E+002
      6.38708   9.75766029E+002
      6.38781   9.86904532E+002
      6.38855   9.98142847E+002
      6.38928   1.00948149E+003
      6.39001   1.02092097E+003
      6.39074   1.03246179E+003
      6.39148   1.04410446E+003
      6.39221   1.05584948E+003
      6.39294   1.06769735E+003
      6.39368   1.07964857E+003
      6.39441   1.09170362E+003
      6.39514   1.10386300E+003
      6.39588   1.11612719E+003
      6.39661   1.12849668E+003
      6.39734   1.14097194E+003
      6.39807   1.15355344E+003
      6.39881   1.16624166E+003
      6.39954   1.17903707E+003
      6.40027   1.19194012E+003
      6.40101   1.20495128E+003
      6.40174   1.21807100E+003
      6.40247   1.23129974E+003
      6.40321   1.24463793E+003
      6.40394   1.25808602E+003
      6.40467   1.27164444E+003
      6.40540   1.28531363E+003
      6.40614   1.29909402E+003
      6.40687   1.31298602E+003
      6.40760   1.32699005E+003
      6.40834   1.34110653E+003
      6.40907   1.35533586E+003
      6.40980   1.36967845E+003
      6.41053   1.38413468E+003
      6.41127   1.39870495E+003
      6.41200   1.41338964E+003
      6.41273   1.42818914E+003
      6.41347   1.44310381E+003
      6.41420   1.45813401E+003
      6.41493   1.47328012E+003
      6.41567   1.48854249E+003
      6.41640   1.50392145E+003
      6.41713   1.51941736E+003
      6.41786   1.53503055E+003
      6.41860   1.55076135E+003
      6.41933   1.56661007E+003
      6.42006   1.58257703E+003
      6.42080   1.59866255E+003
      6.42153   1.61486691E+003
      6.42226   1.63119041E+003
      6.42300   1.64763334E+003
      6.42373   1.66419597E+003
      6.42446   1.68087858E+003
      6.42519   1.69768142E+003
      6.42593   1.71460476E+003
      6.42666   1.73164883E+003
      6.42739   1.74881388E+003
      6.42813   1.76610013E+003
      6.42886   1.78350781E+003
      6.42959   1.80103713E+003
      6.43033   1.81868830E+003
      6.43106   1.83646151E+003
      6.43179   1.85435695E+003
      6.43252   1.87237480E+003
      6.43326   1.89051523E+003
      6.43399   1.90877840E+003
      6.43472   1.92716445E+003
      6.43546   1.94567354E+003
      6.43619   1.96430579E+003
      6.43692   1.98306132E+003
      6.43766   2.00194026E+003
      6.43839   2.02094270E+003
      6.43912   2.04006873E+003
      6.43985   2.05931845E+003
      6.44059   2.07869192E+003
      6.44132   2.09818920E+003
      6.44205   2.11781035E+003
      6.44279   2.13755541E+003
      6.44352   2.15742441E+003
      6.44425   2.17741738E+003
      6.44499   2.19753431E+003
      6.44572   2.21777522E+003
      6.44645   2.23814009E+003
      6.44718   2.25862889E+003
      6.44792   2.27924159E+003
      6.44865   2.29997815E+003
      6.44938   2.32083851E+003
      6.45012   2.34182260E+003
      6.45085   2.36293033E+003
      6.45158   2.38416162E+003
      6.45232   2.40551636E+003
      6.45305   2.42699444E+003
      6.45378   2.44859573E+003
      6.45451   2.47032008E+003
      6.45525   2.49216735E+003
      6.45598   2.51413736E+003
      6.45671   2.53622994E+003
      6.45745   2.55844491E+003
      6.45818   2.58078205E+003
      6.45891   2.60324115E+003
      6.45965   2.62582199E+003
      6.46038   2.64852431E+003
      6.46111   2.67134788E+003
      6.46184   2.69429240E+003
      6.46258   2.71735762E+003
      6.46331   2.74054322E+003
      6.46404   2.76384891E+003
      6.46478   2.78727436E+003
      6.46551   2.81081924E+003
      6.46624   2.83448319E+003
      6.46698   2.85826586E+003
      6.46771   2.88216686E+003
      6.46844   2.90618581E+003
      6.46917   2.93032231E+003
      6.46991   2.95457592E+003
      6.47064   2.97894622E+003
      6.47137   3.00343277E+003
      6.47211   3.02803510E+003
      6.47284   3.05275273E+003
      6.47357   3.07758517E+003
      6.47431   3.10253192E+003
      6.47504   3.12759246E+003
      6.47577   3.15276626E+003
      6.47650   3.17805275E+003
      6.47724   3.20345139E+003
      6.47797   3.22896159E+003
      6.47870   3.25458275E+003
      6.47944   3.28031427E+003
      6.48017   3.30615553E+003
      6.48090   3.33210588E+003
      6.48164   3.35816466E+003
      6.48237   3.38433122E+003
      6.48310   3.41060485E+003
      6.48383   3.43698488E+003
      6.48457   3.46347057E+003
      6.48530   3.49006119E+003
      6.48603   3.51675600E+003
      6.48677   3.54355425E+003
      6.48750   3.57045513E+003
      6.48823   3.59745788E+003
      6.48897   3.62456167E+003
      6.48970   3.65176568E+003
      6.49043   3.67906907E+003
      6.49116   3.70647099E+003
      6.49190   3.73397056E+003
      6.49263   3.76156689E+003
      6.49336   3.78925909E+003
      6.49410   3.81704622E+003
      6.49483   3.84492736E+003
      6.49556   3.87290156E+003
      6.49629   3.90096785E+003
      6.49703   3.92912524E+003
      6.49776   3.95737274E+003
      6.49849   3.98570933E+003
      6.49923   4.01413398E+003
      6.49996   4.04264565E+003
      6.50069   4.07124327E+003
      6.50143   4.09992576E+003
      6.50216   4.12869203E+003
      6.50289   4.15754098E+003
      6.50362   4.18647147E+003
      6.50436   4.21548237E+003
      6.50509   4.24457251E+003
      6.50582   4.27374072E+003
      6.50656   4.30298581E+003
      6.50729   4.33230659E+003
      6.50802   4.36170182E+003
      6.50876   4.39117028E+003
      6.50949   4.42071070E+003
      6.51022   4.45032183E+003
      6.51095   4.48000237E+003
      6.51169   4.50975104E+003
      6.51242   4.53956651E+003
      6.51315   4.56944746E+003
      6.51389   4.59939254E+003
      6.51462   4.62940039E+003
      6.51535   4.65946963E+003
      6.51609   4.68959888E+003
      6.51682   4.71978672E+003
      6.51755   4.75003174E+003
      6.51828   4.78033250E+003
      6.51902   4.81068754E+003
      6.51975   4.84109541E+003
      6.52048   4.87155461E+003
      6.52122   4.90206366E+003
      6.52195   4.93262103E+003
      6.52268   4.96322522E+003
      6.52342   4.99387466E+003
      6.52415   5.02456782E+003
      6.52488   5.05530313E+003
      6.52561   5.08607899E+003
      6.52635   5.11689381E+003
      6.52708   5.14774598E+003
      6.52781   5.17863388E+003
      6.52855   5.20955586E+003
      6.52928   5.24051027E+003
      6.53001   5.27149544E+003
      6.53075   5.30250970E+003
      6.53148   5.33355135E+003
      6.53221   5.36461869E+003
      6.53294   5.39570998E+003
      6.53368   5.42682351E+003
      6.53441   5.45795752E+003
      6.53514   5.48911025E+003
      6.53588   5.52027993E+003
      6.53661   5.55146478E+003
      6.53734   5.58266300E+003
      6.53808   5.61387279E+003
      6.53881   5.64509231E+003
      6.53954   5.67631974E+003
      6.54027   5.70755324E+003
      6.54101   5.73879094E+003
      6.54174   5.77003097E+003
      6.54247   5.80127147E+003
      6.54321   5.83251053E+003
      6.54394   5.86374626E+003
      6.54467   5.89497674E+003
      6.54541   5.92620006E+003
      6.54614   5.95741427E+003
      6.54687   5.98861743E+003
      6.54760   6.01980759E+003
      6.54834   6.05098279E+003
      6.54907   6.08214104E+003
      6.54980   6.11328038E+003
      6.55054   6.14439880E+003
      6.55127   6.17549430E+003
      6.55200   6.20656487E+003
      6.55274   6.23760849E+003
      6.55347   6.26862313E+003
      6.55420   6.29960676E+003
      6.55493   6.33055733E+003
      6.55567   6.36147278E+003
      6.55640   6.39235106E+003
      6.55713   6.42319010E+003
      6.55787   6.45398782E+003
      6.55860   6.48474213E+003
      6.55933   6.51545096E+003
      6.56007   6.54611219E+003
      6.56080   6.57672373E+003
      6.56153   6.60728347E+003
      6.56226   6.63778929E+003
      6.56300   6.66823907E+003
      6.56373   6.69863069E+003
      6.56446   6.72896200E+003
      6.56520   6.75923088E+003
      6.56593   6.78943518E+003
      6.56666   6.81957276E+003
      6.56740   6.84964145E+003
      6.56813   6.87963912E+003
      6.56886   6.90956359E+003
      6.56959   6.93941271E+003
      6.57033   6.96918430E+003
      6.57106   6.99887621E+003
      6.57179   7.02848625E+003
      6.57253   7.05801226E+003
      6.57326   7.08745204E+003
      6.57399   7.11680344E+003
      6.57472   7.14606426E+003
      6.57546   7.17523231E+003
      6.57619   7.20430543E+003
      6.57692   7.23328142E+003
      6.57766   7.26215809E+003
      6.57839   7.29093326E+003
      6.57912   7.31960475E+003
      6.57986   7.34817036E+003
      6.58059   7.37662791E+003
      6.58132   7.40497521E+003
      6.58205   7.43321009E+003
      6.58279   7.46133035E+003
      6.58352   7.48933382E+003
      6.58425   7.51721830E+003
      6.58499   7.54498164E+003
      6.58572   7.57262164E+003
      6.58645   7.60013614E+003
      6.58719   7.62752296E+003
      6.58792   7.65477994E+003
      6.58865   7.68190492E+003
      6.58938   7.70889572E+003
      6.59012   7.73575021E+003
      6.59085   7.76246621E+003
      6.59158   7.78904160E+003
      6.59232   7.81547421E+003
      6.59305   7.84176193E+003
      6.59378   7.86790261E+003
      6.59452   7.89389412E+003
      6.59525   7.91973436E+003
      6.59598   7.94542120E+003
      6.59671   7.97095254E+003
      6.59745   7.99632627E+003
      6.59818   8.02154031E+003
      6.59891   8.04659256E+003
      6.59965   8.07148096E+003
      6.60038   8.09620343E+003
      6.60111   8.12075790E+003
      6.60185   8.14514234E+003
      6.60258   8.16935468E+003
      6.60331   8.19339291E+003
      6.60404   8.21725499E+003
      6.60478   8.24093891E+003
      6.60551   8.26444267E+003
      6.60624   8.28776426E+003
      6.60698   8.31090172E+003
      6.60771   8.33385305E+003
      6.60844   8.35661631E+003
      6.60918   8.37918955E+003
      6.60991   8.40157082E+003
      6.61064   8.42375820E+003
      6.61137   8.44574978E+003
      6.61211   8.46754365E+003
      6.61284   8.48913794E+003
      6.61357   8.51053076E+003
      6.61431   8.53172026E+003
      6.61504   8.55270459E+003
      6.61577   8.57348192E+003
      6.61651   8.59405042E+003
      6.61724   8.61440831E+003
      6.61797   8.63455378E+003
      6.61870   8.65448507E+003
      6.61944   8.67420042E+003
      6.62017   8.69369809E+003
      6.62090   8.71297636E+003
      6.62164   8.73203351E+003
      6.62237   8.75086785E+003
      6.62310   8.76947771E+003
      6.62384   8.78786143E+003
      6.62457   8.80601737E+003
      6.62530   8.82394391E+003
      6.62603   8.84163944E+003
      6.62677   8.85910238E+003
      6.62750   8.87633115E+003
      6.62823   8.89332422E+003
      6.62897   8.91008004E+003
      6.62970   8.92659712E+003
      6.63043   8.94287395E+003
      6.63117   8.95890907E+003
      6.63190   8.97470102E+003
      6.63263   8.99024837E+003
      6.63336   9.00554972E+003
      6.63410   9.02060367E+003
      6.63483   9.03540885E+003
      6.63556   9.04996391E+003
      6.63630   9.06426754E+003
      6.63703   9.07831841E+003
      6.63776   9.09211526E+003
      6.63850   9.10565681E+003
      6.63923   9.11894184E+003
      6.63996   9.13196912E+003
      6.64069   9.14473746E+003
      6.64143   9.15724569E+003
      6.64216   9.16949266E+003
      6.64289   9.18147725E+003
      6.64363   9.19319836E+003
      6.64436   9.20465491E+003
      6.64509   9.21584585E+003
      6.64583   9.22677015E+003
      6.64656   9.23742680E+003
      6.64729   9.24781483E+003
      6.64802   9.25793327E+003
      6.64876   9.26778121E+003
      6.64949   9.27735773E+003
      6.65022   9.28666195E+003
      6.65096   9.29569302E+003
      6.65169   9.30445012E+003
      6.65242   9.31293242E+003
      6.65315   9.32113917E+003
      6.65389   9.32906960E+003
      6.65462   9.33672299E+003
      6.65535   9.34409864E+003
      6.65609   9.35119588E+003
      6.65682   9.35801406E+003
      6.65755   9.36455256E+003
      6.65829   9.37081080E+003
      6.65902   9.37678819E+003
      6.65975   9.38248421E+003
      6.66048   9.38789834E+003
      6.66122   9.39303010E+003
      6.66195   9.39787903E+003
      6.66268   9.40244470E+003
      6.66342   9.40672671E+003
      6.66415   9.41072469E+003
      6.66488   9.41443829E+003
      6.66562   9.41786719E+003
      6.66635   9.42101110E+003
      6.66708   9.42386976E+003
      6.66781   9.42644293E+003
      6.66855   9.42873042E+003
      6.66928   9.43073203E+003
      6.67001   9.43244763E+003
      6.67075   9.43387708E+003
      6.67148   9.43502031E+003
      6.67221   9.43587724E+003
      6.67295   9.43644785E+003
      6.67368   9.43673212E+003
      6.67441   9.43673007E+003
      6.67514   9.43644176E+003
      6.67588   9.43586727E+003
      6.67661   9.43500670E+003
      6.67734   9.43386020E+003
      6.67808   9.43242792E+003
      6.67881   9.43071007E+003
      6.67954   9.42870686E+003
      6.68028   9.42641856E+003
      6.68101   9.42384543E+003
      6.68174   9.42098780E+003
      6.68247   9.41784600E+003
      6.68321   9.41442039E+003
      6.68394   9.41071138E+003
      6.68467   9.40671940E+003
      6.68541   9.40244488E+003
      6.68614   9.39788832E+003
      6.68687   9.39305024E+003
      6.68761   9.38793116E+003
      6.68834   9.38253166E+003
      6.68907   9.37685233E+003
      6.68980   9.37089381E+003
      6.69054   9.36465675E+003
      6.69127   9.35814182E+003
      6.69200   9.35134975E+003
      6.69274   9.34428126E+003
      6.69347   9.33693714E+003
      6.69420   9.32931817E+003
      6.69494   9.32142517E+003
      6.69567   9.31325901E+003
      6.69640   9.30482055E+003
      6.69713   9.29611072E+003
      6.69787   9.28713043E+003
      6.69860   9.27788066E+003
      6.69933   9.26836240E+003
      6.70007   9.25857666E+003
      6.70080   9.24852449E+003
      6.70153   9.23820696E+003
      6.70227   9.22762517E+003
      6.70300   9.21678025E+003
      6.70373   9.20567334E+003
      6.70446   9.19430564E+003
      6.70520   9.18267834E+003
      6.70593   9.17079267E+003
      6.70666   9.15864990E+003
      6.70740   9.14625131E+003
      6.70813   9.13359821E+003
      6.70886   9.12069193E+003
      6.70960   9.10753385E+003
      6.71033   9.09412534E+003
      6.71106   9.08046782E+003
      6.71179   9.06656272E+003
      6.71253   9.05241152E+003
      6.71326   9.03801569E+003
      6.71399   9.02337675E+003
      6.71473   9.00849623E+003
      6.71546   8.99337570E+003
      6.71619   8.97801673E+003
      6.71693   8.96242095E+003
      6.71766   8.94658997E+003
      6.71839   8.93052546E+003
      6.71912   8.91422909E+003
      6.71986   8.89770257E+003
      6.72059   8.88094762E+003
      6.72132   8.86396598E+003
      6.72206   8.84675943E+003
      6.72279   8.82932975E+003
      6.72352   8.81167877E+003
      6.72426   8.79380831E+003
      6.72499   8.77572023E+003
      6.72572   8.75741640E+003
      6.72645   8.73889874E+003
      6.72719   8.72016915E+003
      6.72792   8.70122958E+003
      6.72865   8.68208198E+003
      6.72939   8.66272834E+003
      6.73012   8.64317066E+003
      6.73085   8.62341095E+003
      6.73159   8.60345125E+003
      6.73232   8.58329363E+003
      6.73305   8.56294015E+003
      6.73378   8.54239292E+003
      6.73452   8.52165404E+003
      6.73525   8.50072564E+003
      6.73598   8.47960988E+003
      6.73672   8.45830892E+003
      6.73745   8.43682495E+003
      6.73818   8.41516015E+003
      6.73891   8.39331676E+003
      6.73965   8.37129700E+003
      6.74038   8.34910312E+003
      6.74111   8.32673739E+003
      6.74185   8.30420209E+003
      6.74258   8.28149950E+003
      6.74331   8.25863195E+003
      6.74405   8.23560175E+003
      6.74478   8.21241125E+003
      6.74551   8.18906280E+003
      6.74624   8.16555876E+003
      6.74698   8.14190152E+003
      6.74771   8.11809346E+003
      6.74844   8.09413700E+003
      6.74918   8.07003456E+003
      6.74991   8.04578856E+003
      6.75064   8.02140144E+003
      6.75138   7.99687567E+003
      6.75211   7.97221370E+003
      6.75284   7.94741802E+003
      6.75357   7.92249111E+003
      6.75431   7.89743547E+003
      6.75504   7.87225360E+003
      6.75577   7.84694803E+003
      6.75651   7.82152129E+003
      6.75724   7.79597590E+003
      6.75797   7.77031442E+003
      6.75871   7.74453939E+003
      6.75944   7.71865338E+003
      6.76017   7.69265897E+003
      6.76090   7.66655872E+003
      6.76164   7.64035523E+003
      6.76237   7.61405107E+003
      6.76310   7.58764887E+003
      6.76384   7.56115121E+003
      6.76457   7.53456071E+003
      6.76530   7.50787998E+003
      6.76604   7.48111165E+003
      6.76677   7.45425835E+003
      6.76750   7.42732271E+003
      6.76823   7.40030736E+003
      6.76897   7.37321494E+003
      6.76970   7.34604810E+003
      6.77043   7.31880950E+003
      6.77117   7.29150177E+003
      6.77190   7.26412757E+003
      6.77263   7.23668956E+003
      6.77337   7.20919040E+003
      6.77410   7.18163276E+003
      6.77483   7.15401928E+003
      6.77556   7.12635265E+003
      6.77630   7.09863551E+003
      6.77703   7.07087055E+003
      6.77776   7.04306042E+003
      6.77850   7.01520779E+003
      6.77923   6.98731533E+003
      6.77996   6.95938571E+003
      6.78070   6.93142158E+003
      6.78143   6.90342562E+003
      6.78216   6.87540048E+003
      6.78289   6.84734884E+003
      6.78363   6.81927333E+003
      6.78436   6.79117664E+003
      6.78509   6.76306140E+003
      6.78583   6.73493026E+003
      6.78656   6.70678589E+003
      6.78729   6.67863091E+003
      6.78803   6.65046798E+003
      6.78876   6.62229973E+003
      6.78949   6.59412879E+003
      6.79022   6.56595778E+003
      6.79096   6.53778934E+003
      6.79169   6.50962608E+003
      6.79242   6.48147062E+003
      6.79316   6.45332555E+003
      6.79389   6.42519348E+003
      6.79462   6.39707700E+003
      6.79536   6.36897870E+003
      6.79609   6.34090117E+003
      6.79682   6.31284696E+003
      6.79755   6.28481866E+003
      6.79829   6.25681882E+003
      6.79902   6.22884998E+003
      6.79975   6.20091470E+003
      6.80049   6.17301550E+003
      6.80122   6.14515491E+003
      6.80195   6.11733544E+003
      6.80269   6.08955960E+003
      6.80342   6.06182989E+003
      6.80415   6.03414880E+003
      6.80488   6.00651879E+003
      6.80562   5.97894235E+003
      6.80635   5.95142191E+003
      6.80708   5.92395994E+003
      6.80782   5.89655886E+003
      6.80855   5.86922110E+003
      6.80928   5.84194906E+003
      6.81002   5.81474516E+003
      6.81075   5.78761176E+003
      6.81148   5.76055126E+003
      6.81221   5.73356601E+003
      6.81295   5.70665836E+003
      6.81368   5.67983065E+003
      6.81441   5.65308520E+003
      6.81515   5.62642433E+003
      6.81588   5.59985034E+003
      6.81661   5.57336549E+003
      6.81734   5.54697207E+003
      6.81808   5.52067233E+003
      6.81881   5.49446851E+003
      6.81954   5.46836283E+003
      6.82028   5.44235751E+003
      6.82101   5.41645474E+003
      6.82174   5.39065670E+003
      6.82248   5.36496556E+003
      6.82321   5.33938346E+003
      6.82394   5.31391254E+003
      6.82467   5.28855492E+003
      6.82541   5.26331270E+003
      6.82614   5.23818796E+003
      6.82687   5.21318277E+003
      6.82761   5.18829919E+003
      6.82834   5.16353924E+003
      6.82907   5.13890494E+003
      6.82981   5.11439830E+003
      6.83054   5.09002129E+003
      6.83127   5.06577588E+003
      6.83200   5.04166402E+003
      6.83274   5.01768764E+003
      6.83347   4.99384864E+003
      6.83420   4.97014892E+003
      6.83494   4.94659035E+003
      6.83567   4.92317479E+003
      6.83640   4.89990407E+003
      6.83714   4.87678001E+003
      6.83787   4.85380442E+003
      6.83860   4.83097906E+003
      6.83933   4.80830570E+003
      6.84007   4.78578608E+003
      6.84080   4.76342192E+003
      6.84153   4.74121492E+003
      6.84227   4.71916677E+003
      6.84300   4.69727911E+003
      6.84373   4.67555360E+003
      6.84447   4.65399186E+003
      6.84520   4.63259547E+003
      6.84593   4.61136604E+003
      6.84666   4.59030510E+003
      6.84740   4.56941421E+003
      6.84813   4.54869488E+003
      6.84886   4.52814860E+003
      6.84960   4.50777686E+003
      6.85033   4.48758110E+003
      6.85106   4.46756276E+003
      6.85180   4.44772326E+003
      6.85253   4.42806397E+003
      6.85326   4.40858627E+003
      6.85399   4.38929152E+003
      6.85473   4.37018102E+003
      6.85546   4.35125609E+003
      6.85619   4.33251801E+003
      6.85693   4.31396804E+003
      6.85766   4.29560742E+003
      6.85839   4.27743736E+003
      6.85913   4.25945905E+003
      6.85986   4.24167367E+003
      6.86059   4.22408237E+003
      6.86132   4.20668627E+003
      6.86206   4.18948648E+003
      6.86279   4.17248408E+003
      6.86352   4.15568012E+003
      6.86426   4.13907565E+003
      6.86499   4.12267167E+003
      6.86572   4.10646919E+003
      6.86646   4.09046916E+003
      6.86719   4.07467254E+003
      6.86792   4.05908024E+003
      6.86865   4.04369317E+003
      6.86939   4.02851220E+003
      6.87012   4.01353818E+003
      6.87085   3.99877195E+003
      6.87159   3.98421432E+003
      6.87232   3.96986607E+003
      6.87305   3.95572795E+003
      6.87379   3.94180072E+003
      6.87452   3.92808508E+003
      6.87525   3.91458173E+003
      6.87598   3.90129133E+003
      6.87672   3.88821453E+003
      6.87745   3.87535196E+003
      6.87818   3.86270421E+003
      6.87892   3.85027186E+003
      6.87965   3.83805546E+003
      6.88038   3.82605554E+003
      6.88112   3.81427261E+003
      6.88185   3.80270715E+003
      6.88258   3.79135961E+003
      6.88331   3.78023044E+003
      6.88405   3.76932006E+003
      6.88478   3.75862884E+003
      6.88551   3.74815715E+003
      6.88625   3.73790534E+003
      6.88698   3.72787373E+003
      6.88771   3.71806262E+003
      6.88845   3.70847227E+003
      6.88918   3.69910295E+003
      6.88991   3.68995486E+003
      6.89064   3.68102823E+003
      6.89138   3.67232323E+003
      6.89211   3.66384002E+003
      6.89284   3.65557873E+003
      6.89358   3.64753948E+003
      6.89431   3.63972235E+003
      6.89504   3.63212741E+003
      6.89578   3.62475471E+003
      6.89651   3.61760425E+003
      6.89724   3.61067605E+003
      6.89797   3.60397006E+003
      6.89871   3.59748626E+003
      6.89944   3.59122455E+003
      6.90017   3.58518485E+003
      6.90091   3.57936705E+003
      6.90164   3.57377100E+003
      6.90237   3.56839654E+003
      6.90310   3.56324349E+003
      6.90384   3.55831163E+003
      6.90457   3.55360075E+003
      6.90530   3.54911058E+003
      6.90604   3.54484086E+003
      6.90677   3.54079129E+003
      6.90750   3.53696154E+003
      6.90824   3.53335129E+003
      6.90897   3.52996017E+003
      6.90970   3.52678778E+003
      6.91043   3.52383374E+003
      6.91117   3.52109760E+003
      6.91190   3.51857893E+003
      6.91263   3.51627724E+003
      6.91337   3.51419204E+003
      6.91410   3.51232283E+003
      6.91483   3.51066906E+003
      6.91557   3.50923018E+003
      6.91630   3.50800560E+003
      6.91703   3.50699474E+003
      6.91776   3.50619696E+003
      6.91850   3.50561163E+003
      6.91923   3.50523808E+003
      6.91996   3.50507563E+003
      6.92070   3.50512358E+003
      6.92143   3.50538120E+003
      6.92216   3.50584774E+003
      6.92290   3.50652245E+003
      6.92363   3.50740452E+003
      6.92436   3.50849316E+003
      6.92509   3.50978754E+003
      6.92583   3.51128682E+003
      6.92656   3.51299012E+003
      6.92729   3.51489656E+003
      6.92803   3.51700523E+003
      6.92876   3.51931521E+003
      6.92949   3.52182556E+003
      6.93023   3.52453530E+003
      6.93096   3.52744345E+003
      6.93169   3.53054902E+003
      6.93242   3.53385097E+003
      6.93316   3.53734827E+003
      6.93389   3.54103986E+003
      6.93462   3.54492466E+003
      6.93536   3.54900156E+003
      6.93609   3.55326947E+003
      6.93682   3.55772723E+003
      6.93756   3.56237371E+003
      6.93829   3.56720772E+003
      6.93902   3.57222809E+003
      6.93975   3.57743360E+003
      6.94049   3.58282304E+003
      6.94122   3.58839515E+003
      6.94195   3.59414869E+003
      6.94269   3.60008237E+003
      6.94342   3.60619491E+003
      6.94415   3.61248499E+003
      6.94489   3.61895128E+003
      6.94562   3.62559245E+003
      6.94635   3.63240714E+003
      6.94708   3.63939396E+003
      6.94782   3.64655153E+003
      6.94855   3.65387843E+003
      6.94928   3.66137325E+003
      6.95002   3.66903453E+003
      6.95075   3.67686083E+003
      6.95148   3.68485067E+003
      6.95222   3.69300257E+003
      6.95295   3.70131503E+003
      6.95368   3.70978652E+003
      6.95441   3.71841551E+003
      6.95515   3.72720047E+003
      6.95588   3.73613982E+003
      6.95661   3.74523199E+003
      6.95735   3.75447539E+003
      6.95808   3.76386842E+003
      6.95881   3.77340946E+003
      6.95955   3.78309687E+003
      6.96028   3.79292902E+003
      6.96101   3.80290424E+003
      6.96174   3.81302087E+003
      6.96248   3.82327721E+003
      6.96321   3.83367157E+003
      6.96394   3.84420224E+003
      6.96468   3.85486750E+003
      6.96541   3.86566560E+003
      6.96614   3.87659482E+003
      6.96688   3.88765337E+003
      6.96761   3.89883950E+003
      6.96834   3.91015143E+003
      6.96907   3.92158734E+003
      6.96981   3.93314545E+003
      6.97054   3.94482394E+003
      6.97127   3.95662097E+003
      6.97201   3.96853472E+003
      6.97274   3.98056333E+003
      6.97347   3.99270494E+003
      6.97421   4.00495768E+003
      6.97494   4.01731968E+003
      6.97567   4.02978905E+003
      6.97640   4.04236389E+003
      6.97714   4.05504229E+003
      6.97787   4.06782234E+003
      6.97860   4.08070211E+003
      6.97934   4.09367967E+003
      6.98007   4.10675308E+003
      6.98080   4.11992038E+003
      6.98153   4.13317962E+003
      6.98227   4.14652882E+003
      6.98300   4.15996602E+003
      6.98373   4.17348924E+003
      6.98447   4.18709648E+003
      6.98520   4.20078575E+003
      6.98593   4.21455505E+003
      6.98667   4.22840236E+003
      6.98740   4.24232568E+003
      6.98813   4.25632297E+003
      6.98886   4.27039221E+003
      6.98960   4.28453137E+003
      6.99033   4.29873841E+003
      6.99106   4.31301127E+003
      6.99180   4.32734792E+003
      6.99253   4.34174630E+003
      6.99326   4.35620434E+003
      6.99400   4.37071999E+003
      6.99473   4.38529117E+003
      6.99546   4.39991581E+003
      6.99619   4.41459184E+003
      6.99693   4.42931717E+003
      6.99766   4.44408973E+003
      6.99839   4.45890743E+003
      6.99913   4.47376817E+003
      6.99986   4.48866986E+003
      7.00059   4.50361042E+003
      7.00133   4.51858774E+003
      7.00206   4.53359973E+003
      7.00279   4.54864428E+003
      7.00352   4.56371929E+003
      7.00426   4.57882267E+003
      7.00499   4.59395229E+003
      7.00572   4.60910607E+003
      7.00646   4.62428189E+003
      7.00719   4.63947764E+003
      7.00792   4.65469123E+003
      7.00866   4.66992054E+003
      7.00939   4.68516347E+003
      7.01012   4.70041790E+003
      7.01085   4.71568175E+003
      7.01159   4.73095289E+003
      7.01232   4.74622923E+003
      7.01305   4.76150867E+003
      7.01379   4.77678911E+003
      7.01452   4.79206845E+003
      7.01525   4.80734458E+003
      7.01599   4.82261543E+003
      7.01672   4.83787890E+003
      7.01745   4.85313290E+003
      7.01818   4.86837535E+003
      7.01892   4.88360415E+003
      7.01965   4.89881725E+003
      7.02038   4.91401255E+003
      7.02112   4.92918800E+003
      7.02185   4.94434152E+003
      7.02258   4.95947106E+003
      7.02332   4.97457455E+003
      7.02405   4.98964994E+003
      7.02478   5.00469519E+003
      7.02551   5.01970826E+003
      7.02625   5.03468711E+003
      7.02698   5.04962970E+003
      7.02771   5.06453402E+003
      7.02845   5.07939805E+003
      7.02918   5.09421977E+003
      7.02991   5.10899719E+003
      7.03065   5.12372830E+003
      7.03138   5.13841111E+003
      7.03211   5.15304364E+003
      7.03284   5.16762393E+003
      7.03358   5.18214999E+003
      7.03431   5.19661987E+003
      7.03504   5.21103162E+003
      7.03578   5.22538330E+003
      7.03651   5.23967297E+003
      7.03724   5.25389872E+003
      7.03798   5.26805862E+003
      7.03871   5.28215076E+003
      7.03944   5.29617327E+003
      7.04017   5.31012424E+003
      7.04091   5.32400181E+003
      7.04164   5.33780410E+003
      7.04237   5.35152926E+003
      7.04311   5.36517546E+003
      7.04384   5.37874085E+003
      7.04457   5.39222361E+003
      7.04531   5.40562194E+003
      7.04604   5.41893404E+003
      7.04677   5.43215811E+003
      7.04750   5.44529239E+003
      7.04824   5.45833511E+003
      7.04897   5.47128452E+003
      7.04970   5.48413888E+003
      7.05044   5.49689648E+003
      7.05117   5.50955560E+003
      7.05190   5.52211453E+003
      7.05264   5.53457161E+003
      7.05337   5.54692515E+003
      7.05410   5.55917350E+003
      7.05483   5.57131501E+003
      7.05557   5.58334807E+003
      7.05630   5.59527104E+003
      7.05703   5.60708235E+003
      7.05777   5.61878039E+003
      7.05850   5.63036361E+003
      7.05923   5.64183044E+003
      7.05996   5.65317935E+003
      7.06070   5.66440882E+003
      7.06143   5.67551733E+003
      7.06216   5.68650340E+003
      7.06290   5.69736556E+003
      7.06363   5.70810233E+003
      7.06436   5.71871229E+003
      7.06510   5.72919400E+003
      7.06583   5.73954605E+003
      7.06656   5.74976706E+003
      7.06729   5.75985564E+003
      7.06803   5.76981045E+003
      7.06876   5.77963014E+003
      7.06949   5.78931339E+003
      7.07023   5.79885889E+003
      7.07096   5.80826536E+003
      7.07169   5.81753153E+003
      7.07243   5.82665615E+003
      7.07316   5.83563799E+003
      7.07389   5.84447583E+003
      7.07462   5.85316848E+003
      7.07536   5.86171476E+003
      7.07609   5.87011352E+003
      7.07682   5.87836362E+003
      7.07756   5.88646394E+003
      7.07829   5.89441338E+003
      7.07902   5.90221087E+003
      7.07976   5.90985534E+003
      7.08049   5.91734575E+003
      7.08122   5.92468108E+003
      7.08195   5.93186033E+003
      7.08269   5.93888253E+003
      7.08342   5.94574671E+003
      7.08415   5.95245193E+003
      7.08489   5.95899728E+003
      7.08562   5.96538185E+003
      7.08635   5.97160477E+003
      7.08709   5.97766518E+003
      7.08782   5.98356224E+003
      7.08855   5.98929514E+003
      7.08928   5.99486309E+003
      7.09002   6.00026531E+003
      7.09075   6.00550105E+003
      7.09148   6.01056958E+003
      7.09222   6.01547019E+003
      7.09295   6.02020219E+003
      7.09368   6.02476492E+003
      7.09442   6.02915773E+003
      7.09515   6.03338001E+003
      7.09588   6.03743114E+003
      7.09661   6.04131055E+003
      7.09735   6.04501769E+003
      7.09808   6.04855202E+003
      7.09881   6.05191302E+003
      7.09955   6.05510020E+003
      7.10028   6.05811310E+003
      7.10101   6.06095127E+003
      7.10175   6.06361428E+003
      7.10248   6.06610174E+003
      7.10321   6.06841325E+003
      7.10394   6.07054848E+003
      7.10468   6.07250707E+003
      7.10541   6.07428872E+003
      7.10614   6.07589314E+003
      7.10688   6.07732005E+003
      7.10761   6.07856922E+003
      7.10834   6.07964043E+003
      7.10908   6.08053346E+003
      7.10981   6.08124815E+003
      7.11054   6.08178433E+003
      7.11127   6.08214189E+003
      7.11201   6.08232070E+003
      7.11274   6.08232068E+003
      7.11347   6.08214176E+003
      7.11421   6.08178391E+003
      7.11494   6.08124710E+003
      7.11567   6.08053134E+003
      7.11641   6.07963665E+003
      7.11714   6.07856308E+003
      7.11787   6.07731071E+003
      7.11860   6.07587962E+003
      7.11934   6.07426993E+003
      7.12007   6.07248178E+003
      7.12080   6.07051533E+003
      7.12154   6.06837077E+003
      7.12227   6.06604829E+003
      7.12300   6.06354814E+003
      7.12374   6.06087055E+003
      7.12447   6.05801580E+003
      7.12520   6.05498419E+003
      7.12593   6.05177603E+003
      7.12667   6.04839167E+003
      7.12740   6.04483146E+003
      7.12813   6.04109578E+003
      7.12887   6.03718505E+003
      7.12960   6.03309969E+003
      7.13033   6.02884015E+003
      7.13107   6.02440690E+003
      7.13180   6.01980043E+003
      7.13253   6.01502127E+003
      7.13326   6.01006993E+003
      7.13400   6.00494699E+003
      7.13473   5.99965302E+003
      7.13546   5.99418862E+003
      7.13620   5.98855442E+003
      7.13693   5.98275105E+003
      7.13766   5.97677919E+003
      7.13840   5.97063951E+003
      7.13913   5.96433272E+003
      7.13986   5.95785955E+003
      7.14059   5.95122076E+003
      7.14133   5.94441709E+003
      7.14206   5.93744936E+003
      7.14279   5.93031836E+003
      7.14353   5.92302492E+003
      7.14426   5.91556990E+003
      7.14499   5.90795417E+003
      7.14572   5.90017862E+003
      7.14646   5.89224415E+003
      7.14719   5.88415170E+003
      7.14792   5.87590222E+003
      7.14866   5.86749668E+003
      7.14939   5.85893607E+003
      7.15012   5.85022139E+003
      7.15086   5.84135367E+003
      7.15159   5.83233397E+003
      7.15232   5.82316335E+003
      7.15305   5.81384288E+003
      7.15379   5.80437369E+003
      7.15452   5.79475688E+003
      7.15525   5.78499360E+003
      7.15599   5.77508501E+003
      7.15672   5.76503229E+003
      7.15745   5.75483663E+003
      7.15819   5.74449924E+003
      7.15892   5.73402136E+003
      7.15965   5.72340424E+003
      7.16038   5.71264913E+003
      7.16112   5.70175734E+003
      7.16185   5.69073015E+003
      7.16258   5.67956889E+003
      7.16332   5.66827489E+003
      7.16405   5.65684950E+003
      7.16478   5.64529410E+003
      7.16552   5.63361006E+003
      7.16625   5.62179879E+003
      7.16698   5.60986171E+003
      7.16771   5.59780025E+003
      7.16845   5.58561586E+003
      7.16918   5.57331000E+003
      7.16991   5.56088417E+003
      7.17065   5.54833985E+003
      7.17138   5.53567855E+003
      7.17211   5.52290181E+003
      7.17285   5.51001117E+003
      7.17358   5.49700818E+003
      7.17431   5.48389441E+003
      7.17504   5.47067145E+003
      7.17578   5.45734090E+003
      7.17651   5.44390438E+003
      7.17724   5.43036351E+003
      7.17798   5.41671994E+003
      7.17871   5.40297532E+003
      7.17944   5.38913132E+003
      7.18018   5.37518963E+003
      7.18091   5.36115194E+003
      7.18164   5.34701996E+003
      7.18237   5.33279541E+003
      7.18311   5.31848003E+003
      7.18384   5.30407557E+003
      7.18457   5.28958378E+003
      7.18531   5.27500643E+003
      7.18604   5.26034532E+003
      7.18677   5.24560223E+003
      7.18751   5.23077898E+003
      7.18824   5.21587738E+003
      7.18897   5.20089927E+003
      7.18970   5.18584648E+003
      7.19044   5.17072087E+003
      7.19117   5.15552430E+003
      7.19190   5.14025865E+003
      7.19264   5.12492580E+003
      7.19337   5.10952765E+003
      7.19410   5.09406611E+003
      7.19484   5.07854308E+003
      7.19557   5.06296050E+003
      7.19630   5.04732030E+003
      7.19703   5.03162443E+003
      7.19777   5.01587484E+003
      7.19850   5.00007349E+003
      7.19923   4.98422236E+003
      7.19997   4.96832343E+003
      7.20070   4.95237869E+003
      7.20143   4.93639015E+003
      7.20217   4.92035980E+003
      7.20290   4.90428967E+003
      7.20363   4.88818177E+003
      7.20436   4.87203815E+003
      7.20510   4.85586085E+003
      7.20583   4.83965190E+003
      7.20656   4.82341337E+003
      7.20730   4.80714732E+003
      7.20803   4.79085583E+003
      7.20876   4.77454096E+003
      7.20950   4.75820480E+003
      7.21023   4.74184946E+003
      7.21096   4.72547701E+003
      7.21169   4.70908957E+003
      7.21243   4.69268925E+003
      7.21316   4.67627817E+003
      7.21389   4.65985845E+003
      7.21463   4.64343222E+003
      7.21536   4.62700162E+003
      7.21609   4.61056878E+003
      7.21683   4.59413585E+003
      7.21756   4.57770499E+003
      7.21829   4.56127836E+003
      7.21902   4.54485811E+003
      7.21976   4.52844641E+003
      7.22049   4.51204544E+003
      7.22122   4.49565737E+003
      7.22196   4.47928439E+003
      7.22269   4.46292868E+003
      7.22342   4.44659243E+003
      7.22415   4.43027784E+003
      7.22489   4.41398711E+003
      7.22562   4.39772244E+003
      7.22635   4.38148603E+003
      7.22709   4.36528011E+003
      7.22782   4.34910688E+003
      7.22855   4.33296856E+003
      7.22929   4.31686737E+003
      7.23002   4.30080554E+003
      7.23075   4.28478530E+003
      7.23148   4.26880888E+003
      7.23222   4.25287851E+003
      7.23295   4.23699643E+003
      7.23368   4.22116488E+003
      7.23442   4.20538610E+003
      7.23515   4.18966234E+003
      7.23588   4.17399584E+003
      7.23662   4.15838887E+003
      7.23735   4.14284365E+003
      7.23808   4.12736247E+003
      7.23881   4.11194756E+003
      7.23955   4.09660118E+003
      7.24028   4.08132561E+003
      7.24101   4.06612310E+003
      7.24175   4.05099591E+003
      7.24248   4.03594631E+003
      7.24321   4.02097657E+003
      7.24395   4.00608895E+003
      7.24468   3.99128573E+003
      7.24541   3.97656918E+003
      7.24614   3.96194156E+003
      7.24688   3.94740516E+003
      7.24761   3.93296224E+003
      7.24834   3.91861509E+003
      7.24908   3.90436597E+003
      7.24981   3.89021718E+003
      7.25054   3.87617097E+003
      7.25128   3.86222964E+003
      7.25201   3.84839545E+003
      7.25274   3.83467070E+003
      7.25347   3.82105766E+003
      7.25421   3.80755861E+003
      7.25494   3.79417583E+003
      7.25567   3.78091161E+003
      7.25641   3.76776821E+003
      7.25714   3.75474793E+003
      7.25787   3.74185305E+003
      7.25861   3.72908584E+003
      7.25934   3.71644860E+003
      7.26007   3.70394358E+003
      7.26080   3.69157309E+003
      7.26154   3.67933940E+003
      7.26227   3.66724479E+003
      7.26300   3.65529153E+003
      7.26374   3.64348192E+003
      7.26447   3.63181822E+003
      7.26520   3.62030272E+003
      7.26594   3.60893769E+003
      7.26667   3.59772541E+003
      7.26740   3.58666816E+003
      7.26813   3.57576821E+003
      7.26887   3.56502783E+003
      7.26960   3.55444931E+003
      7.27033   3.54403491E+003
      7.27107   3.53378690E+003
      7.27180   3.52370757E+003
      7.27253   3.51379917E+003
      7.27327   3.50406397E+003
      7.27400   3.49450425E+003
      7.27473   3.48512227E+003
      7.27546   3.47592029E+003
      7.27620   3.46690059E+003
      7.27693   3.45806541E+003
      7.27766   3.44941704E+003
      7.27840   3.44095771E+003
      7.27913   3.43268970E+003
      7.27986   3.42461526E+003
      7.28060   3.41673665E+003
      7.28133   3.40905612E+003
      7.28206   3.40157592E+003
      7.28279   3.39429830E+003
      7.28353   3.38722552E+003
      7.28426   3.38035982E+003
      7.28499   3.37370344E+003
      7.28573   3.36725864E+003
      7.28646   3.36102765E+003
      7.28719   3.35501271E+003
      7.28793   3.34921607E+003
      7.28866   3.34363995E+003
      7.28939   3.33828659E+003
      7.29012   3.33315823E+003
      7.29086   3.32825709E+003
      7.29159   3.32358541E+003
      7.29232   3.31914540E+003
      7.29306   3.31493929E+003
      7.29379   3.31096931E+003
      7.29452   3.30723767E+003
      7.29526   3.30374658E+003
      7.29599   3.30049827E+003
      7.29672   3.29749494E+003
      7.29745   3.29473881E+003
      7.29819   3.29223208E+003
      7.29892   3.28997694E+003
      7.29965   3.28797562E+003
      7.30039   3.28623029E+003
      7.30112   3.28474317E+003
      7.30185   3.28351643E+003
      7.30259   3.28255228E+003
      7.30332   3.28185289E+003
      7.30405   3.28142046E+003
      7.30478   3.28125716E+003
      7.30552   3.28136518E+003
      7.30625   3.28174667E+003
      7.30698   3.28240383E+003
      7.30772   3.28333881E+003
      7.30845   3.28455378E+003
      7.30918   3.28605090E+003
      7.30991   3.28783233E+003
      7.31065   3.28990022E+003
      7.31138   3.29225672E+003
      7.31211   3.29490399E+003
      7.31285   3.29784415E+003
      7.31358   3.30107936E+003
      7.31431   3.30461175E+003
      7.31505   3.30844344E+003
      7.31578   3.31257657E+003
      7.31651   3.31701326E+003
      7.31724   3.32175562E+003
      7.31798   3.32680577E+003
      7.31871   3.33216583E+003
      7.31944   3.33783788E+003
      7.32018   3.34382405E+003
      7.32091   3.35012641E+003
      7.32164   3.35674707E+003
      7.32238   3.36368810E+003
      7.32311   3.37095160E+003
      7.32384   3.37853962E+003
      7.32457   3.38645426E+003
      7.32531   3.39469756E+003
      7.32604   3.40327160E+003
      7.32677   3.41217841E+003
      7.32751   3.42142007E+003
      7.32824   3.43099859E+003
      7.32897   3.44091603E+003
      7.32971   3.45117442E+003
      7.33044   3.46177577E+003
      7.33117   3.47272211E+003
      7.33190   3.48401544E+003
      7.33264   3.49565778E+003
      7.33337   3.50765112E+003
      7.33410   3.51999746E+003
      7.33484   3.53269877E+003
      7.33557   3.54575704E+003
      7.33630   3.55917424E+003
      7.33704   3.57295232E+003
      7.33777   3.58709326E+003
      7.33850   3.60159898E+003
      7.33923   3.61647144E+003
      7.33997   3.63171257E+003
      7.34070   3.64732428E+003
      7.34143   3.66330850E+003
      7.34217   3.67966713E+003
      7.34290   3.69640208E+003
      7.34363   3.71351522E+003
      7.34437   3.73100844E+003
      7.34510   3.74888361E+003
      7.34583   3.76714260E+003
      7.34656   3.78578725E+003
      7.34730   3.80481941E+003
      7.34803   3.82424091E+003
      7.34876   3.84405357E+003
      7.34950   3.86425921E+003
      7.35023   3.88485963E+003
      7.35096   3.90585661E+003
      7.35170   3.92725194E+003
      7.35243   3.94904739E+003
      7.35316   3.97124471E+003
      7.35389   3.99384565E+003
      7.35463   4.01685195E+003
      7.35536   4.04026532E+003
      7.35609   4.06408748E+003
      7.35683   4.08832012E+003
      7.35756   4.11296492E+003
      7.35829   4.13802357E+003
      7.35903   4.16349771E+003
      7.35976   4.18938900E+003
      7.36049   4.21569907E+003
      7.36122   4.24242952E+003
      7.36196   4.26958197E+003
      7.36269   4.29715801E+003
      7.36342   4.32515920E+003
      7.36416   4.35358712E+003
      7.36489   4.38244330E+003
      7.36562   4.41172927E+003
      7.36636   4.44144655E+003
      7.36709   4.47159664E+003
      7.36782   4.50218101E+003
      7.36855   4.53320113E+003
      7.36929   4.56465845E+003
      7.37002   4.59655439E+003
      7.37075   4.62889039E+003
      7.37149   4.66166782E+003
      7.37222   4.69488807E+003
      7.37295   4.72855249E+003
      7.37369   4.76266244E+003
      7.37442   4.79721923E+003
      7.37515   4.83222417E+003
      7.37588   4.86767853E+003
      7.37662   4.90358360E+003
      7.37735   4.93994060E+003
      7.37808   4.97675077E+003
      7.37882   5.01401531E+003
      7.37955   5.05173540E+003
      7.38028   5.08991221E+003
      7.38102   5.12854687E+003
      7.38175   5.16764050E+003
      7.38248   5.20719421E+003
      7.38321   5.24720906E+003
      7.38395   5.28768611E+003
      7.38468   5.32862638E+003
      7.38541   5.37003087E+003
      7.38615   5.41190058E+003
      7.38688   5.45423645E+003
      7.38761   5.49703942E+003
      7.38834   5.54031040E+003
      7.38908   5.58405026E+003
      7.38981   5.62825987E+003
      7.39054   5.67294006E+003
      7.39128   5.71809162E+003
      7.39201   5.76371535E+003
      7.39274   5.80981198E+003
      7.39348   5.85638225E+003
      7.39421   5.90342686E+003
      7.39494   5.95094646E+003
      7.39567   5.99894171E+003
      7.39641   6.04741321E+003
      7.39714   6.09636154E+003
      7.39787   6.14578727E+003
      7.39861   6.19569092E+003
      7.39934   6.24607297E+003
      7.40007   6.29693390E+003
      7.40081   6.34827414E+003
      7.40154   6.40009408E+003
      7.40227   6.45239410E+003
      7.40300   6.50517455E+003
      7.40374   6.55843572E+003
      7.40447   6.61217788E+003
      7.40520   6.66640129E+003
      7.40594   6.72110615E+003
      7.40667   6.77629264E+003
      7.40740   6.83196088E+003
      7.40814   6.88811100E+003
      7.40887   6.94474306E+003
      7.40960   7.00185710E+003
      7.41033   7.05945312E+003
      7.41107   7.11753109E+003
      7.41180   7.17609093E+003
      7.41253   7.23513255E+003
      7.41327   7.29465578E+003
      7.41400   7.35466046E+003
      7.41473   7.41514637E+003
      7.41547   7.47611324E+003
      7.41620   7.53756079E+003
      7.41693   7.59948868E+003
      7.41766   7.66189654E+003
      7.41840   7.72478395E+003
      7.41913   7.78815048E+003
      7.41986   7.85199561E+003
      7.42060   7.91631884E+003
      7.42133   7.98111957E+003
      7.42206   8.04639721E+003
      7.42280   8.11215109E+003
      7.42353   8.17838052E+003
      7.42426   8.24508477E+003
      7.42499   8.31226304E+003
      7.42573   8.37991453E+003
      7.42646   8.44803835E+003
      7.42719   8.51663362E+003
      7.42793   8.58569936E+003
      7.42866   8.65523459E+003
      7.42939   8.72523826E+003
      7.43013   8.79570929E+003
      7.43086   8.86664655E+003
      7.43159   8.93804886E+003
      7.43232   9.00991500E+003
      7.43306   9.08224371E+003
      7.43379   9.15503367E+003
      7.43452   9.22828353E+003
      7.43526   9.30199186E+003
      7.43599   9.37615724E+003
      7.43672   9.45077815E+003
      7.43746   9.52585304E+003
      7.43819   9.60138033E+003
      7.43892   9.67735836E+003
      7.43965   9.75378545E+003
      7.44039   9.83065986E+003
      7.44112   9.90797979E+003
      7.44185   9.98574341E+003
      7.44259   1.00639488E+004
      7.44332   1.01425941E+004
      7.44405   1.02216773E+004
      7.44479   1.03011963E+004
      7.44552   1.03811491E+004
      7.44625   1.04615335E+004
      7.44698   1.05423473E+004
      7.44772   1.06235883E+004
      7.44845   1.07052542E+004
      7.44918   1.07873426E+004
      7.44992   1.08698513E+004
      7.45065   1.09527776E+004
      7.45138   1.10361192E+004
      7.45212   1.11198735E+004
      7.45285   1.12040378E+004
      7.45358   1.12886096E+004
      7.45431   1.13735861E+004
      7.45505   1.14589645E+004
      7.45578   1.15447421E+004
      7.45651   1.16309160E+004
      7.45725   1.17174833E+004
      7.45798   1.18044410E+004
      7.45871   1.18917861E+004
      7.45945   1.19795154E+004
      7.46018   1.20676260E+004
      7.46091   1.21561145E+004
      7.46164   1.22449778E+004
      7.46238   1.23342126E+004
      7.46311   1.24238155E+004
      7.46384   1.25137831E+004
      7.46458   1.26041120E+004
      7.46531   1.26947987E+004
      7.46604   1.27858396E+004
      7.46678   1.28772311E+004
      7.46751   1.29689695E+004
      7.46824   1.30610511E+004
      7.46897   1.31534722E+004
      7.46971   1.32462289E+004
      7.47044   1.33393173E+004
      7.47117   1.34327334E+004
      7.47191   1.35264734E+004
      7.47264   1.36205332E+004
      7.47337   1.37149085E+004
      7.47410   1.38095954E+004
      7.47484   1.39045896E+004
      7.47557   1.39998868E+004
      7.47630   1.40954828E+004
      7.47704   1.41913731E+004
      7.47777   1.42875533E+004
      7.47850   1.43840190E+004
      7.47924   1.44807656E+004
      7.47997   1.45777886E+004
      7.48070   1.46750833E+004
      7.48143   1.47726451E+004
      7.48217   1.48704691E+004
      7.48290   1.49685507E+004
      7.48363   1.50668850E+004
      7.48437   1.51654670E+004
      7.48510   1.52642919E+004
      7.48583   1.53633546E+004
      7.48657   1.54626501E+004
      7.48730   1.55621733E+004
      7.48803   1.56619190E+004
      7.48876   1.57618821E+004
      7.48950   1.58620572E+004
      7.49023   1.59624392E+004
      7.49096   1.60630225E+004
      7.49170   1.61638020E+004
      7.49243   1.62647720E+004
      7.49316   1.63659270E+004
      7.49390   1.64672617E+004
      7.49463   1.65687702E+004
      7.49536   1.66704471E+004
      7.49609   1.67722866E+004
      7.49683   1.68742830E+004
      7.49756   1.69764304E+004
      7.49829   1.70787231E+004
      7.49903   1.71811551E+004
      7.49976   1.72837207E+004
      7.50049   1.73864137E+004
      7.50123   1.74892281E+004
      7.50196   1.75921580E+004
      7.50269   1.76951972E+004
      7.50342   1.77983396E+004
      7.50416   1.79015789E+004
      7.50489   1.80049090E+004
      7.50562   1.81083235E+004
      7.50636   1.82118162E+004
      7.50709   1.83153807E+004
      7.50782   1.84190106E+004
      7.50856   1.85226994E+004
      7.50929   1.86264408E+004
      7.51002   1.87302281E+004
      7.51075   1.88340548E+004
      7.51149   1.89379144E+004
      7.51222   1.90418001E+004
      7.51295   1.91457054E+004
      7.51369   1.92496235E+004
      7.51442   1.93535476E+004
      7.51515   1.94574711E+004
      7.51589   1.95613871E+004
      7.51662   1.96652888E+004
      7.51735   1.97691692E+004
      7.51808   1.98730216E+004
      7.51882   1.99768389E+004
      7.51955   2.00806141E+004
      7.52028   2.01843403E+004
      7.52102   2.02880105E+004
      7.52175   2.03916175E+004
      7.52248   2.04951544E+004
      7.52322   2.05986139E+004
      7.52395   2.07019889E+004
      7.52468   2.08052724E+004
      7.52541   2.09084570E+004
      7.52615   2.10115355E+004
      7.52688   2.11145008E+004
      7.52761   2.12173455E+004
      7.52835   2.13200623E+004
      7.52908   2.14226440E+004
      7.52981   2.15250832E+004
      7.53055   2.16273726E+004
      7.53128   2.17295048E+004
      7.53201   2.18314723E+004
      7.53274   2.19332679E+004
      7.53348   2.20348840E+004
      7.53421   2.21363133E+004
      7.53494   2.22375482E+004
      7.53568   2.23385813E+004
      7.53641   2.24394051E+004
      7.53714   2.25400122E+004
      7.53788   2.26403950E+004
      7.53861   2.27405459E+004
      7.53934   2.28404576E+004
      7.54007   2.29401223E+004
      7.54081   2.30395326E+004
      7.54154   2.31386810E+004
      7.54227   2.32375598E+004
      7.54301   2.33361615E+004
      7.54374   2.34344786E+004
      7.54447   2.35325034E+004
      7.54521   2.36302283E+004
      7.54594   2.37276459E+004
      7.54667   2.38247485E+004
      7.54740   2.39215285E+004
      7.54814   2.40179783E+004
      7.54887   2.41140904E+004
      7.54960   2.42098573E+004
      7.55034   2.43052712E+004
      7.55107   2.44003247E+004
      7.55180   2.44950102E+004
      7.55253   2.45893202E+004
      7.55327   2.46832470E+004
      7.55400   2.47767832E+004
      7.55473   2.48699212E+004
      7.55547   2.49626536E+004
      7.55620   2.50549727E+004
      7.55693   2.51468712E+004
      7.55767   2.52383414E+004
      7.55840   2.53293761E+004
      7.55913   2.54199676E+004
      7.55986   2.55101086E+004
      7.56060   2.55997917E+004
      7.56133   2.56890094E+004
      7.56206   2.57777544E+004
      7.56280   2.58660193E+004
      7.56353   2.59537968E+004
      7.56426   2.60410796E+004
      7.56500   2.61278603E+004
      7.56573   2.62141317E+004
      7.56646   2.62998866E+004
      7.56719   2.63851178E+004
      7.56793   2.64698180E+004
      7.56866   2.65539801E+004
      7.56939   2.66375969E+004
      7.57013   2.67206614E+004
      7.57086   2.68031665E+004
      7.57159   2.68851052E+004
      7.57233   2.69664704E+004
      7.57306   2.70472553E+004
      7.57379   2.71274527E+004
      7.57452   2.72070559E+004
      7.57526   2.72860580E+004
      7.57599   2.73644522E+004
      7.57672   2.74422317E+004
      7.57746   2.75193897E+004
      7.57819   2.75959196E+004
      7.57892   2.76718146E+004
      7.57966   2.77470683E+004
      7.58039   2.78216739E+004
      7.58112   2.78956250E+004
      7.58185   2.79689151E+004
      7.58259   2.80415377E+004
      7.58332   2.81134865E+004
      7.58405   2.81847552E+004
      7.58479   2.82553374E+004
      7.58552   2.83252269E+004
      7.58625   2.83944175E+004
      7.58699   2.84629032E+004
      7.58772   2.85306777E+004
      7.58845   2.85977352E+004
      7.58918   2.86640696E+004
      7.58992   2.87296749E+004
      7.59065   2.87945455E+004
      7.59138   2.88586754E+004
      7.59212   2.89220589E+004
      7.59285   2.89846904E+004
      7.59358   2.90465641E+004
      7.59432   2.91076747E+004
      7.59505   2.91680165E+004
      7.59578   2.92275841E+004
      7.59651   2.92863722E+004
      7.59725   2.93443755E+004
      7.59798   2.94015887E+004
      7.59871   2.94580067E+004
      7.59945   2.95136243E+004
      7.60018   2.95684366E+004
      7.60091   2.96224385E+004
      7.60165   2.96756251E+004
      7.60238   2.97279917E+004
      7.60311   2.97795334E+004
      7.60384   2.98302456E+004
      7.60458   2.98801237E+004
      7.60531   2.99291631E+004
      7.60604   2.99773594E+004
      7.60678   3.00247082E+004
      7.60751   3.00712051E+004
      7.60824   3.01168460E+004
      7.60898   3.01616266E+004
      7.60971   3.02055429E+004
      7.61044   3.02485908E+004
      7.61117   3.02907665E+004
      7.61191   3.03320660E+004
      7.61264   3.03724857E+004
      7.61337   3.04120218E+004
      7.61411   3.04506708E+004
      7.61484   3.04884290E+004
      7.61557   3.05252930E+004
      7.61631   3.05612596E+004
      7.61704   3.05963253E+004
      7.61777   3.06304871E+004
      7.61850   3.06637418E+004
      7.61924   3.06960863E+004
      7.61997   3.07275178E+004
      7.62070   3.07580333E+004
      7.62144   3.07876301E+004
      7.62217   3.08163056E+004
      7.62290   3.08440571E+004
      7.62364   3.08708821E+004
      7.62437   3.08967782E+004
      7.62510   3.09217431E+004
      7.62583   3.09457745E+004
      7.62657   3.09688703E+004
      7.62730   3.09910283E+004
      7.62803   3.10122467E+004
      7.62877   3.10325236E+004
      7.62950   3.10518571E+004
      7.63023   3.10702455E+004
      7.63096   3.10876872E+004
      7.63170   3.11041808E+004
      7.63243   3.11197247E+004
      7.63316   3.11343177E+004
      7.63390   3.11479584E+004
      7.63463   3.11606458E+004
      7.63536   3.11723787E+004
      7.63610   3.11831562E+004
      7.63683   3.11929774E+004
      7.63756   3.12018416E+004
      7.63829   3.12097480E+004
      7.63903   3.12166960E+004
      7.63976   3.12226852E+004
      7.64049   3.12277150E+004
      7.64123   3.12317853E+004
      7.64196   3.12348957E+004
      7.64269   3.12370461E+004
      7.64343   3.12382365E+004
      7.64416   3.12384669E+004
      7.64489   3.12377376E+004
      7.64562   3.12360486E+004
      7.64636   3.12334004E+004
      7.64709   3.12297934E+004
      7.64782   3.12252280E+004
      7.64856   3.12197050E+004
      7.64929   3.12132250E+004
      7.65002   3.12057888E+004
      7.65076   3.11973972E+004
      7.65149   3.11880514E+004
      7.65222   3.11777523E+004
      7.65295   3.11665011E+004
      7.65369   3.11542991E+004
      7.65442   3.11411476E+004
      7.65515   3.11270481E+004
      7.65589   3.11120020E+004
      7.65662   3.10960111E+004
      7.65735   3.10790771E+004
      7.65809   3.10612017E+004
      7.65882   3.10423868E+004
      7.65955   3.10226345E+004
      7.66028   3.10019467E+004
      7.66102   3.09803258E+004
      7.66175   3.09577738E+004
      7.66248   3.09342933E+004
      7.66322   3.09098865E+004
      7.66395   3.08845560E+004
      7.66468   3.08583045E+004
      7.66542   3.08311346E+004
      7.66615   3.08030490E+004
      7.66688   3.07740508E+004
      7.66761   3.07441427E+004
      7.66835   3.07133279E+004
      7.66908   3.06816095E+004
      7.66981   3.06489907E+004
      7.67055   3.06154747E+004
      7.67128   3.05810649E+004
      7.67201   3.05457649E+004
      7.67275   3.05095781E+004
      7.67348   3.04725082E+004
      7.67421   3.04345588E+004
      7.67494   3.03957337E+004
      7.67568   3.03560368E+004
      7.67641   3.03154721E+004
      7.67714   3.02740435E+004
      7.67788   3.02317551E+004
      7.67861   3.01886112E+004
      7.67934   3.01446159E+004
      7.68008   3.00997737E+004
      7.68081   3.00540888E+004
      7.68154   3.00075658E+004
      7.68227   2.99602091E+004
      7.68301   2.99120236E+004
      7.68374   2.98630137E+004
      7.68447   2.98131843E+004
      7.68521   2.97625403E+004
      7.68594   2.97110865E+004
      7.68667   2.96588279E+004
      7.68741   2.96057695E+004
      7.68814   2.95519166E+004
      7.68887   2.94972741E+004
      7.68960   2.94418474E+004
      7.69034   2.93856418E+004
      7.69107   2.93286627E+004
      7.69180   2.92709155E+004
      7.69254   2.92124056E+004
      7.69327   2.91531387E+004
      7.69400   2.90931204E+004
      7.69474   2.90323564E+004
      7.69547   2.89708524E+004
      7.69620   2.89086141E+004
      7.69693   2.88456475E+004
      7.69767   2.87819585E+004
      7.69840   2.87175530E+004
      7.69913   2.86524371E+004
      7.69987   2.85866169E+004
      7.70060   2.85200983E+004
      7.70133   2.84528878E+004
      7.70207   2.83849914E+004
      7.70280   2.83164155E+004
      7.70353   2.82471664E+004
      7.70426   2.81772504E+004
      7.70500   2.81066741E+004
      7.70573   2.80354438E+004
      7.70646   2.79635661E+004
      7.70720   2.78910476E+004
      7.70793   2.78178948E+004
      7.70866   2.77441144E+004
      7.70940   2.76697131E+004
      7.71013   2.75946976E+004
      7.71086   2.75190747E+004
      7.71159   2.74428512E+004
      7.71233   2.73660339E+004
      7.71306   2.72886297E+004
      7.71379   2.72106455E+004
      7.71453   2.71320883E+004
      7.71526   2.70529650E+004
      7.71599   2.69732826E+004
      7.71672   2.68930483E+004
      7.71746   2.68122690E+004
      7.71819   2.67309519E+004
      7.71892   2.66491041E+004
      7.71966   2.65667327E+004
      7.72039   2.64838450E+004
      7.72112   2.64004481E+004
      7.72186   2.63165492E+004
      7.72259   2.62321557E+004
      7.72332   2.61472747E+004
      7.72405   2.60619136E+004
      7.72479   2.59760798E+004
      7.72552   2.58897804E+004
      7.72625   2.58030229E+004
      7.72699   2.57158146E+004
      7.72772   2.56281630E+004
      7.72845   2.55400754E+004
      7.72919   2.54515592E+004
      7.72992   2.53626218E+004
      7.73065   2.52732707E+004
      7.73138   2.51835132E+004
      7.73212   2.50933570E+004
      7.73285   2.50028094E+004
      7.73358   2.49118778E+004
      7.73432   2.48205698E+004
      7.73505   2.47288928E+004
      7.73578   2.46368543E+004
      7.73652   2.45444618E+004
      7.73725   2.44517228E+004
      7.73798   2.43586447E+004
      7.73871   2.42652351E+004
      7.73945   2.41715014E+004
      7.74018   2.40774511E+004
      7.74091   2.39830917E+004
      7.74165   2.38884306E+004
      7.74238   2.37934754E+004
      7.74311   2.36982335E+004
      7.74385   2.36027123E+004
      7.74458   2.35069193E+004
      7.74531   2.34108620E+004
      7.74604   2.33145477E+004
      7.74678   2.32179840E+004
      7.74751   2.31211781E+004
      7.74824   2.30241375E+004
      7.74898   2.29268696E+004
      7.74971   2.28293817E+004
      7.75044   2.27316813E+004
      7.75118   2.26337755E+004
      7.75191   2.25356718E+004
      7.75264   2.24373775E+004
      7.75337   2.23388998E+004
      7.75411   2.22402460E+004
      7.75484   2.21414233E+004
      7.75557   2.20424389E+004
      7.75631   2.19433001E+004
      7.75704   2.18440141E+004
      7.75777   2.17445878E+004
      7.75851   2.16450286E+004
      7.75924   2.15453435E+004
      7.75997   2.14455395E+004
      7.76070   2.13456238E+004
      7.76144   2.12456032E+004
      7.76217   2.11454849E+004
      7.76290   2.10452757E+004
      7.76364   2.09449826E+004
      7.76437   2.08446125E+004
      7.76510   2.07441723E+004
      7.76584   2.06436687E+004
      7.76657   2.05431086E+004
      7.76730   2.04424987E+004
      7.76803   2.03418458E+004
      7.76877   2.02411566E+004
      7.76950   2.01404377E+004
      7.77023   2.00396957E+004
      7.77097   1.99389372E+004
      7.77170   1.98381688E+004
      7.77243   1.97373969E+004
      7.77317   1.96366281E+004
      7.77390   1.95358687E+004
      7.77463   1.94351251E+004
      7.77536   1.93344037E+004
      7.77610   1.92337107E+004
      7.77683   1.91330525E+004
      7.77756   1.90324352E+004
      7.77830   1.89318650E+004
      7.77903   1.88313480E+004
      7.77976   1.87308903E+004
      7.78050   1.86304980E+004
      7.78123   1.85301770E+004
      7.78196   1.84299332E+004
      7.78269   1.83297726E+004
      7.78343   1.82297011E+004
      7.78416   1.81297243E+004
      7.78489   1.80298480E+004
      7.78563   1.79300781E+004
      7.78636   1.78304200E+004
      7.78709   1.77308794E+004
      7.78783   1.76314619E+004
      7.78856   1.75321729E+004
      7.78929   1.74330179E+004
      7.79002   1.73340023E+004
      7.79076   1.72351315E+004
      7.79149   1.71364107E+004
      7.79222   1.70378452E+004
      7.79296   1.69394402E+004
      7.79369   1.68412007E+004
      7.79442   1.67431319E+004
      7.79515   1.66452389E+004
      7.79589   1.65475265E+004
      7.79662   1.64499997E+004
      7.79735   1.63526634E+004
      7.79809   1.62555223E+004
      7.79882   1.61585813E+004
      7.79955   1.60618449E+004
      7.80029   1.59653180E+004
      7.80102   1.58690049E+004
      7.80175   1.57729104E+004
      7.80248   1.56770387E+004
      7.80322   1.55813945E+004
      7.80395   1.54859819E+004
      7.80468   1.53908054E+004
      7.80542   1.52958691E+004
      7.80615   1.52011773E+004
      7.80688   1.51067341E+004
      7.80762   1.50125435E+004
      7.80835   1.49186095E+004
      7.80908   1.48249362E+004
      7.80981   1.47315274E+004
      7.81055   1.46383870E+004
      7.81128   1.45455187E+004
      7.81201   1.44529263E+004
      7.81275   1.43606134E+004
      7.81348   1.42685836E+004
      7.81421   1.41768406E+004
      7.81495   1.40853877E+004
      7.81568   1.39942284E+004
      7.81641   1.39033661E+004
      7.81714   1.38128042E+004
      7.81788   1.37225458E+004
      7.81861   1.36325941E+004
      7.81934   1.35429524E+004
      7.82008   1.34536236E+004
      7.82081   1.33646109E+004
      7.82154   1.32759171E+004
      7.82228   1.31875453E+004
      7.82301   1.30994982E+004
      7.82374   1.30117786E+004
      7.82447   1.29243893E+004
      7.82521   1.28373330E+004
      7.82594   1.27506122E+004
      7.82667   1.26642296E+004
      7.82741   1.25781876E+004
      7.82814   1.24924887E+004
      7.82887   1.24071353E+004
      7.82961   1.23221298E+004
      7.83034   1.22374743E+004
      7.83107   1.21531712E+004
      7.83180   1.20692226E+004
      7.83254   1.19856306E+004
      7.83327   1.19023972E+004
      7.83400   1.18195246E+004
      7.83474   1.17370145E+004
      7.83547   1.16548690E+004
      7.83620   1.15730898E+004
      7.83694   1.14916787E+004
      7.83767   1.14106375E+004
      7.83840   1.13299677E+004
      7.83913   1.12496712E+004
      7.83987   1.11697493E+004
      7.84060   1.10902036E+004
      7.84133   1.10110357E+004
      7.84207   1.09322468E+004
      7.84280   1.08538383E+004
      7.84353   1.07758116E+004
      7.84427   1.06981679E+004
      7.84500   1.06209083E+004
      7.84573   1.05440341E+004
      7.84646   1.04675464E+004
      7.84720   1.03914461E+004
      7.84793   1.03157342E+004
      7.84866   1.02404119E+004
      7.84940   1.01654798E+004
      7.85013   1.00909389E+004
      7.85086   1.00167900E+004
      7.85160   9.94303375E+003
      7.85233   9.86967097E+003
      7.85306   9.79670226E+003
      7.85379   9.72412825E+003
      7.85453   9.65194948E+003
      7.85526   9.58016649E+003
      7.85599   9.50877973E+003
      7.85673   9.43778963E+003
      7.85746   9.36719657E+003
      7.85819   9.29700089E+003
      7.85893   9.22720287E+003
      7.85966   9.15780277E+003
      7.86039   9.08880077E+003
      7.86112   9.02019705E+003
      7.86186   8.95199172E+003
      7.86259   8.88418485E+003
      7.86332   8.81677647E+003
      7.86406   8.74976659E+003
      7.86479   8.68315514E+003
      7.86552   8.61694204E+003
      7.86626   8.55112716E+003
      7.86699   8.48571032E+003
      7.86772   8.42069132E+003
      7.86845   8.35606992E+003
      7.86919   8.29184582E+003
      7.86992   8.22801870E+003
      7.87065   8.16458820E+003
      7.87139   8.10155392E+003
      7.87212   8.03891544E+003
      7.87285   7.97667227E+003
      7.87359   7.91482391E+003
      7.87432   7.85336982E+003
      7.87505   7.79230944E+003
      7.87578   7.73164213E+003
      7.87652   7.67136728E+003
      7.87725   7.61148419E+003
      7.87798   7.55199215E+003
      7.87872   7.49289044E+003
      7.87945   7.43417827E+003
      7.88018   7.37585485E+003
      7.88091   7.31791933E+003
      7.88165   7.26037085E+003
      7.88238   7.20320852E+003
      7.88311   7.14643141E+003
      7.88385   7.09003858E+003
      7.88458   7.03402902E+003
      7.88531   6.97840175E+003
      7.88605   6.92315572E+003
      7.88678   6.86828987E+003
      7.88751   6.81380310E+003
      7.88824   6.75969430E+003
      7.88898   6.70596233E+003
      7.88971   6.65260602E+003
      7.89044   6.59962418E+003
      7.89118   6.54701560E+003
      7.89191   6.49477903E+003
      7.89264   6.44291320E+003
      7.89338   6.39141685E+003
      7.89411   6.34028865E+003
      7.89484   6.28952727E+003
      7.89557   6.23913137E+003
      7.89631   6.18909958E+003
      7.89704   6.13943049E+003
      7.89777   6.09012270E+003
      7.89851   6.04117478E+003
      7.89924   5.99258527E+003
      7.89997   5.94435271E+003
      7.90071   5.89647561E+003
      7.90144   5.84895245E+003
      7.90217   5.80178172E+003
      7.90290   5.75496188E+003
      7.90364   5.70849137E+003
      7.90437   5.66236861E+003
      7.90510   5.61659203E+003
      7.90584   5.57116001E+003
      7.90657   5.52607095E+003
      7.90730   5.48132320E+003
      7.90804   5.43691512E+003
      7.90877   5.39284505E+003
      7.90950   5.34911132E+003
      7.91023   5.30571224E+003
      7.91097   5.26264612E+003
      7.91170   5.21991125E+003
      7.91243   5.17750591E+003
      7.91317   5.13542837E+003
      7.91390   5.09367688E+003
      7.91463   5.05224969E+003
      7.91537   5.01114505E+003
      7.91610   4.97036118E+003
      7.91683   4.92989629E+003
      7.91756   4.88974862E+003
      7.91830   4.84991634E+003
      7.91903   4.81039767E+003
      7.91976   4.77119079E+003
      7.92050   4.73229388E+003
      7.92123   4.69370512E+003
      7.92196   4.65542267E+003
      7.92270   4.61744469E+003
      7.92343   4.57976935E+003
      7.92416   4.54239479E+003
      7.92489   4.50531916E+003
      7.92563   4.46854060E+003
      7.92636   4.43205725E+003
      7.92709   4.39586724E+003
      7.92783   4.35996871E+003
      7.92856   4.32435977E+003
      7.92929   4.28903856E+003
      7.93003   4.25400319E+003
      7.93076   4.21925179E+003
      7.93149   4.18478247E+003
      7.93222   4.15059335E+003
      7.93296   4.11668254E+003
      7.93369   4.08304815E+003
      7.93442   4.04968830E+003
      7.93516   4.01660111E+003
      7.93589   3.98378467E+003
      7.93662   3.95123711E+003
      7.93736   3.91895654E+003
      7.93809   3.88694107E+003
      7.93882   3.85518881E+003
      7.93955   3.82369789E+003
      7.94029   3.79246642E+003
      7.94102   3.76149251E+003
      7.94175   3.73077429E+003
      7.94249   3.70030989E+003
      7.94322   3.67009743E+003
      7.94395   3.64013504E+003
      7.94469   3.61042085E+003
      7.94542   3.58095299E+003
      7.94615   3.55172961E+003
      7.94688   3.52274886E+003
      7.94762   3.49400886E+003
      7.94835   3.46550779E+003
      7.94908   3.43724378E+003
      7.94982   3.40921501E+003
      7.95055   3.38141964E+003
      7.95128   3.35385584E+003
      7.95202   3.32652178E+003
      7.95275   3.29941564E+003
      7.95348   3.27253562E+003
      7.95421   3.24587990E+003
      7.95495   3.21944668E+003
      7.95568   3.19323418E+003
      7.95641   3.16724059E+003
      7.95715   3.14146414E+003
      7.95788   3.11590305E+003
      7.95861   3.09055555E+003
      7.95934   3.06541989E+003
      7.96008   3.04049431E+003
      7.96081   3.01577706E+003
      7.96154   2.99126640E+003
      7.96228   2.96696061E+003
      7.96301   2.94285795E+003
      7.96374   2.91895672E+003
      7.96448   2.89525521E+003
      7.96521   2.87175171E+003
      7.96594   2.84844454E+003
      7.96667   2.82533202E+003
      7.96741   2.80241246E+003
      7.96814   2.77968422E+003
      7.96887   2.75714562E+003
      7.96961   2.73479504E+003
      7.97034   2.71263082E+003
      7.97107   2.69065134E+003
      7.97181   2.66885497E+003
      7.97254   2.64724013E+003
      7.97327   2.62580519E+003
      7.97400   2.60454857E+003
      7.97474   2.58346869E+003
      7.97547   2.56256398E+003
      7.97620   2.54183288E+003
      7.97694   2.52127383E+003
      7.97767   2.50088530E+003
      7.97840   2.48066575E+003
      7.97914   2.46061367E+003
      7.97987   2.44072754E+003
      7.98060   2.42100586E+003
      7.98133   2.40144714E+003
      7.98207   2.38204990E+003
      7.98280   2.36281267E+003
      7.98353   2.34373400E+003
      7.98427   2.32481243E+003
      7.98500   2.30604653E+003
      7.98573   2.28743487E+003
      7.98647   2.26897604E+003
      7.98720   2.25066862E+003
      7.98793   2.23251122E+003
      7.98866   2.21450246E+003
      7.98940   2.19664096E+003
      7.99013   2.17892537E+003
      7.99086   2.16135432E+003
      7.99160   2.14392648E+003
      7.99233   2.12664052E+003
      7.99306   2.10949512E+003
      7.99380   2.09248897E+003
      7.99453   2.07562077E+003
      7.99526   2.05888923E+003
      7.99599   2.04229309E+003
      7.99673   2.02583107E+003
      7.99746   2.00950191E+003
      7.99819   1.99330439E+003
      7.99893   1.97723726E+003
      7.99966   1.96129930E+003
      8.00039   1.94548931E+003
      8.00113   1.92980607E+003
      8.00186   1.91424841E+003
      8.00259   1.89881515E+003
      8.00332   1.88350512E+003
      8.00406   1.86831716E+003
      8.00479   1.85325012E+003
      8.00552   1.83830288E+003
      8.00626   1.82347430E+003
      8.00699   1.80876328E+003
      8.00772   1.79416871E+003
      8.00846   1.77968950E+003
      8.00919   1.76532457E+003
      8.00992   1.75107284E+003
      8.01065   1.73693326E+003
      8.01139   1.72290478E+003
      8.01212   1.70898635E+003
      8.01285   1.69517695E+003
      8.01359   1.68147556E+003
      8.01432   1.66788117E+003
      8.01505   1.65439279E+003
      8.01579   1.64100942E+003
      8.01652   1.62773008E+003
      8.01725   1.61455382E+003
      8.01798   1.60147967E+003
      8.01872   1.58850668E+003
      8.01945   1.57563392E+003
      8.02018   1.56286046E+003
      8.02092   1.55018539E+003
      8.02165   1.53760779E+003
      8.02238   1.52512676E+003
      8.02312   1.51274143E+003
      8.02385   1.50045091E+003
      8.02458   1.48825433E+003
      8.02531   1.47615083E+003
      8.02605   1.46413957E+003
      8.02678   1.45221969E+003
      8.02751   1.44039038E+003
      8.02825   1.42865081E+003
      8.02898   1.41700016E+003
      8.02971   1.40543764E+003
      8.03045   1.39396244E+003
      8.03118   1.38257379E+003
      8.03191   1.37127090E+003
      8.03264   1.36005301E+003
      8.03338   1.34891936E+003
      8.03411   1.33786921E+003
      8.03484   1.32690180E+003
      8.03558   1.31601641E+003
      8.03631   1.30521230E+003
      8.03704   1.29448878E+003
      8.03777   1.28384512E+003
      8.03851   1.27328063E+003
      8.03924   1.26279462E+003
      8.03997   1.25238640E+003
      8.04071   1.24205531E+003
      8.04144   1.23180067E+003
      8.04217   1.22162182E+003
      8.04291   1.21151812E+003
      8.04364   1.20148892E+003
      8.04437   1.19153359E+003
      8.04510   1.18165149E+003
      8.04584   1.17184201E+003
      8.04657   1.16210454E+003
      8.04730   1.15243846E+003
      8.04804   1.14284319E+003
      8.04877   1.13331813E+003
      8.04950   1.12386269E+003
      8.05024   1.11447631E+003
      8.05097   1.10515840E+003
      8.05170   1.09590842E+003
      8.05243   1.08672580E+003
      8.05317   1.07760999E+003
      8.05390   1.06856045E+003
      8.05463   1.05957665E+003
      8.05537   1.05065806E+003
      8.05610   1.04180415E+003
      8.05683   1.03301441E+003
      8.05757   1.02428832E+003
      8.05830   1.01562539E+003
      8.05903   1.00702512E+003
      8.05976   9.98487020E+002
      8.06050   9.90010596E+002
      8.06123   9.81595374E+002
      8.06196   9.73240879E+002
      8.06270   9.64946646E+002
      8.06343   9.56712210E+002
      8.06416   9.48537116E+002
      8.06490   9.40420914E+002
      8.06563   9.32363157E+002
      8.06636   9.24363407E+002
      8.06709   9.16421229E+002
      8.06783   9.08536193E+002
      8.06856   9.00707875E+002
      8.06929   8.92935858E+002
      8.07003   8.85219726E+002
      8.07076   8.77559072E+002
      8.07149   8.69953491E+002
      8.07223   8.62402584E+002
      8.07296   8.54905957E+002
      8.07369   8.47463221E+002
      8.07442   8.40073991E+002
      8.07516   8.32737886E+002
      8.07589   8.25454531E+002
      8.07662   8.18223554E+002
      8.07736   8.11044589E+002
      8.07809   8.03917273E+002
      8.07882   7.96841247E+002
      8.07956   7.89816157E+002
      8.08029   7.82841653E+002
      8.08102   7.75917388E+002
      8.08175   7.69043022E+002
      8.08249   7.62218215E+002
      8.08322   7.55442634E+002
      8.08395   7.48715947E+002
      8.08469   7.42037829E+002
      8.08542   7.35407955E+002
      8.08615   7.28826007E+002
      8.08689   7.22291668E+002
      8.08762   7.15804626E+002
      8.08835   7.09364571E+002
      8.08908   7.02971199E+002
      8.08982   6.96624207E+002
      8.09055   6.90323296E+002
      8.09128   6.84068169E+002
      8.09202   6.77858535E+002
      8.09275   6.71694103E+002
      8.09348   6.65574587E+002
      8.09422   6.59499703E+002
      8.09495   6.53469171E+002
      8.09568   6.47482712E+002
      8.09641   6.41540053E+002
      8.09715   6.35640919E+002
      8.09788   6.29785043E+002
      8.09861   6.23972157E+002
      8.09935   6.18201997E+002
      8.10008   6.12474301E+002
      8.10081   6.06788811E+002
      8.10155   6.01145269E+002
      8.10228   5.95543422E+002
      8.10301   5.89983017E+002
      8.10374   5.84463806E+002
      8.10448   5.78985541E+002
      8.10521   5.73547976E+002
      8.10594   5.68150871E+002
      8.10668   5.62793983E+002
      8.10741   5.57477074E+002
      8.10814   5.52199909E+002
      8.10888   5.46962252E+002
      8.10961   5.41763872E+002
      8.11034   5.36604537E+002
      8.11107   5.31484021E+002
      8.11181   5.26402095E+002
      8.11254   5.21358536E+002
      8.11327   5.16353121E+002
      8.11401   5.11385627E+002
      8.11474   5.06455836E+002
      8.11547   5.01563531E+002
      8.11621   4.96708494E+002
      8.11694   4.91890512E+002
      8.11767   4.87109372E+002
      8.11840   4.82364862E+002
      8.11914   4.77656773E+002
      8.11987   4.72984896E+002
      8.12060   4.68349024E+002
      8.12134   4.63748953E+002
      8.12207   4.59184477E+002
      8.12280   4.54655395E+002
      8.12353   4.50161505E+002
      8.12427   4.45702607E+002
      8.12500   4.41278502E+002
      8.12573   4.36888994E+002
      8.12647   4.32533885E+002
      8.12720   4.28212981E+002
      8.12793   4.23926087E+002
      8.12867   4.19673012E+002
      8.12940   4.15453563E+002
      8.13013   4.11267551E+002
      8.13086   4.07114785E+002
      8.13160   4.02995077E+002
      8.13233   3.98908241E+002
      8.13306   3.94854089E+002
      8.13380   3.90832437E+002
      8.13453   3.86843099E+002
      8.13526   3.82885894E+002
      8.13600   3.78960637E+002
      8.13673   3.75067149E+002
      8.13746   3.71205247E+002
      8.13819   3.67374752E+002
      8.13893   3.63575485E+002
      8.13966   3.59807269E+002
      8.14039   3.56069925E+002
      8.14113   3.52363278E+002
      8.14186   3.48687150E+002
      8.14259   3.45041369E+002
      8.14333   3.41425758E+002
      8.14406   3.37840146E+002
      8.14479   3.34284358E+002
      8.14552   3.30758223E+002
      8.14626   3.27261570E+002
      8.14699   3.23794228E+002
      8.14772   3.20356027E+002
      8.14846   3.16946797E+002
      8.14919   3.13566370E+002
      8.14992   3.10214577E+002
      8.15066   3.06891252E+002
      8.15139   3.03596227E+002
      8.15212   3.00329336E+002
      8.15285   2.97090413E+002
      8.15359   2.93879294E+002
      8.15432   2.90695813E+002
      8.15505   2.87539807E+002
      8.15579   2.84411112E+002
      8.15652   2.81309565E+002
      8.15725   2.78235004E+002
      8.15799   2.75187267E+002
      8.15872   2.72166194E+002
      8.15945   2.69171622E+002
      8.16018   2.66203391E+002
      8.16092   2.63261342E+002
      8.16165   2.60345316E+002
      8.16238   2.57455154E+002
      8.16312   2.54590696E+002
      8.16385   2.51751786E+002
      8.16458   2.48938266E+002
      8.16532   2.46149978E+002
      8.16605   2.43386767E+002
      8.16678   2.40648477E+002
      8.16751   2.37934951E+002
      8.16825   2.35246034E+002
      8.16898   2.32581572E+002
      8.16971   2.29941411E+002
      8.17045   2.27325396E+002
      8.17118   2.24733375E+002
      8.17191   2.22165194E+002
      8.17265   2.19620700E+002
      8.17338   2.17099742E+002
      8.17411   2.14602168E+002
      8.17484   2.12127826E+002
      8.17558   2.09676565E+002
      8.17631   2.07248236E+002
      8.17704   2.04842688E+002
      8.17778   2.02459771E+002
      8.17851   2.00099337E+002
      8.17924   1.97761236E+002
      8.17998   1.95445320E+002
      8.18071   1.93151441E+002
      8.18144   1.90879451E+002
      8.18217   1.88629204E+002
      8.18291   1.86400552E+002
      8.18364   1.84193350E+002
      8.18437   1.82007451E+002
      8.18511   1.79842710E+002
      8.18584   1.77698981E+002
      8.18657   1.75576120E+002
      8.18731   1.73473983E+002
      8.18804   1.71392426E+002
      8.18877   1.69331306E+002
      8.18950   1.67290479E+002
      8.19024   1.65269803E+002
      8.19097   1.63269136E+002
      8.19170   1.61288335E+002
      8.19244   1.59327261E+002
      8.19317   1.57385771E+002
      8.19390   1.55463725E+002
      8.19464   1.53560984E+002
      8.19537   1.51677407E+002
      8.19610   1.49812856E+002
      8.19683   1.47967191E+002
      8.19757   1.46140275E+002
      8.19830   1.44331970E+002
      8.19903   1.42542138E+002
      8.19977   1.40770642E+002
      8.20050   1.39017345E+002
      8.20123   1.37282113E+002
      8.20196   1.35564808E+002
      8.20270   1.33865296E+002
      8.20343   1.32183443E+002
      8.20416   1.30519113E+002
      8.20490   1.28872174E+002
      8.20563   1.27242491E+002
      8.20636   1.25629932E+002
      8.20710   1.24034365E+002
      8.20783   1.22455658E+002
      8.20856   1.20893679E+002
      8.20929   1.19348297E+002
      8.21003   1.17819382E+002
      8.21076   1.16306804E+002
      8.21149   1.14810433E+002
      8.21223   1.13330141E+002
      8.21296   1.11865799E+002
      8.21369   1.10417279E+002
      8.21443   1.08984453E+002
      8.21516   1.07567194E+002
      8.21589   1.06165377E+002
      8.21662   1.04778874E+002
      8.21736   1.03407561E+002
      8.21809   1.02051312E+002
      8.21882   1.00710003E+002
      8.21956   9.93835110E+001
      8.22029   9.80717112E+001
      8.22102   9.67744813E+001
      8.22176   9.54916988E+001
      8.22249   9.42232421E+001
      8.22322   9.29689898E+001
      8.22395   9.17288212E+001
      8.22469   9.05026160E+001
      8.22542   8.92902546E+001
      8.22615   8.80916180E+001
      8.22689   8.69065874E+001
      8.22762   8.57350449E+001
      8.22835   8.45768731E+001
      8.22909   8.34319550E+001
      8.22982   8.23001742E+001
      8.23055   8.11814151E+001
      8.23128   8.00755622E+001
      8.23202   7.89825010E+001
      8.23275   7.79021174E+001
      8.23348   7.68342979E+001
      8.23422   7.57789294E+001
      8.23495   7.47358996E+001
      8.23568   7.37050967E+001
      8.23642   7.26864094E+001
      8.23715   7.16797272E+001
      8.23788   7.06849399E+001
      8.23861   6.97019380E+001
      8.23935   6.87306127E+001
      8.24008   6.77708556E+001
      8.24081   6.68225590E+001
      8.24155   6.58856158E+001
      8.24228   6.49599195E+001
      8.24301   6.40453640E+001
      8.24375   6.31418441E+001
      8.24448   6.22492550E+001
      8.24521   6.13674926E+001
      8.24594   6.04964533E+001
      8.24668   5.96360341E+001
      8.24741   5.87861328E+001
      8.24814   5.79466476E+001
      8.24888   5.71174772E+001
      8.24961   5.62985214E+001
      8.25034   5.54896800E+001
      8.25108   5.46908538E+001
      8.25181   5.39019441E+001
      8.25254   5.31228528E+001
      8.25327   5.23534824E+001
      8.25401   5.15937361E+001
      8.25474   5.08435177E+001
      8.25547   5.01027314E+001
      8.25621   4.93712823E+001
      8.25694   4.86490759E+001
      8.25767   4.79360185E+001
      8.25841   4.72320169E+001
      8.25914   4.65369785E+001
      8.25987   4.58508114E+001
      8.26060   4.51734243E+001
      8.26134   4.45047264E+001
      8.26207   4.38446277E+001
      8.26280   4.31930388E+001
      8.26354   4.25498706E+001
      8.26427   4.19150351E+001
      8.26500   4.12884446E+001
      8.26574   4.06700120E+001
      8.26647   4.00596511E+001
      8.26720   3.94572760E+001
      8.26793   3.88628016E+001
      8.26867   3.82761434E+001
      8.26940   3.76972173E+001
      8.27013   3.71259402E+001
      8.27087   3.65622294E+001
      8.27160   3.60060027E+001
      8.27233   3.54571787E+001
      8.27307   3.49156766E+001
      8.27380   3.43814161E+001
      8.27453   3.38543176E+001
      8.27526   3.33343020E+001
      8.27600   3.28212910E+001
      8.27673   3.23152068E+001
      8.27746   3.18159722E+001
      8.27820   3.13235106E+001
      8.27893   3.08377460E+001
      8.27966   3.03586030E+001
      8.28040   2.98860069E+001
      8.28113   2.94198835E+001
      8.28186   2.89601592E+001
      8.28259   2.85067611E+001
      8.28333   2.80596167E+001
      8.28406   2.76186544E+001
      8.28479   2.71838029E+001
      8.28553   2.67549916E+001
      8.28626   2.63321505E+001
      8.28699   2.59152103E+001
      8.28772   2.55041020E+001
      8.28846   2.50987575E+001
      8.28919   2.46991092E+001
      8.28992   2.43050898E+001
      8.29066   2.39166330E+001
      8.29139   2.35336729E+001
      8.29212   2.31561440E+001
      8.29286   2.27839817E+001
      8.29359   2.24171217E+001
      8.29432   2.20555005E+001
      8.29505   2.16990550E+001
      8.29579   2.13477228E+001
      8.29652   2.10014418E+001
      8.29725   2.06601508E+001
      8.29799   2.03237889E+001
      8.29872   1.99922960E+001
      8.29945   1.96656123E+001
      8.30019   1.93436787E+001
      8.30092   1.90264367E+001
      8.30165   1.87138282E+001
      8.30238   1.84057957E+001
      8.30312   1.81022823E+001
      8.30385   1.78032316E+001
      8.30458   1.75085878E+001
      8.30532   1.72182954E+001
      8.30605   1.69322998E+001
      8.30678   1.66505466E+001
      8.30752   1.63729822E+001
      8.30825   1.60995533E+001
      8.30898   1.58302072E+001
      8.30971   1.55648918E+001
      8.31045   1.53035554E+001
      8.31118   1.50461469E+001
      8.31191   1.47926156E+001
      8.31265   1.45429115E+001
      8.31338   1.42969850E+001
      8.31411   1.40547869E+001
      8.31485   1.38162686E+001
      8.31558   1.35813821E+001
      8.31631   1.33500796E+001
      8.31704   1.31223142E+001
      8.31778   1.28980392E+001
      8.31851   1.26772083E+001
      8.31924   1.24597760E+001
      8.31998   1.22456971E+001
      8.32071   1.20349269E+001
      8.32144   1.18274211E+001
      8.32218   1.16231359E+001
      8.32291   1.14220282E+001
      8.32364   1.12240550E+001
      8.32437   1.10291739E+001
      8.32511   1.08373431E+001
      8.32584   1.06485212E+001
      8.32657   1.04626670E+001
      8.32731   1.02797401E+001
      8.32804   1.00997003E+001
      8.32877   9.92250802E+000
      8.32951   9.74812400E+000
      8.33024   9.57650944E+000
      8.33097   9.40762601E+000
      8.33170   9.24143576E+000
      8.33244   9.07790121E+000
      8.33317   8.91698529E+000
      8.33390   8.75865134E+000
      8.33464   8.60286314E+000
      8.33537   8.44958486E+000
      8.33610   8.29878109E+000
      8.33684   8.15041685E+000
      8.33757   8.00445753E+000
      8.33830   7.86086895E+000
      8.33903   7.71961731E+000
      8.33977   7.58066922E+000
      8.34050   7.44399167E+000
      8.34123   7.30955206E+000
      8.34197   7.17731814E+000
      8.34270   7.04725809E+000
      8.34343   6.91934043E+000
      8.34417   6.79353407E+000
      8.34490   6.66980831E+000
      8.34563   6.54813279E+000
      8.34636   6.42847754E+000
      8.34710   6.31081296E+000
      8.34783   6.19510978E+000
      8.34856   6.08133912E+000
      8.34930   5.96947243E+000
      8.35003   5.85948153E+000
      8.35076   5.75133859E+000
      8.35150   5.64501610E+000
      8.35223   5.54048693E+000
      8.35296   5.43772425E+000
      8.35369   5.33670160E+000
      8.35443   5.23739284E+000
      8.35516   5.13977214E+000
      8.35589   5.04381403E+000
      8.35663   4.94949335E+000
      8.35736   4.85678526E+000
      8.35809   4.76566523E+000
      8.35883   4.67610906E+000
      8.35956   4.58809286E+000
      8.36029   4.50159304E+000
      8.36102   4.41658632E+000
      8.36176   4.33304973E+000
      8.36249   4.25096058E+000
